1.864	-0.017395	0.0434875	0.0260925
1.866	-0.0164795	0.043335	0.0268555
1.868	-0.0170898	0.0437927	0.0267029
1.87	-0.0170898	0.0442505	0.0271606
1.872	-0.0164795	0.0448608	0.0283813
1.874	-0.0170898	0.0460815	0.0289917
1.876	-0.0177002	0.0473022	0.0296021
1.878	-0.0170898	0.0483704	0.0312805
1.88	-0.0177002	0.0494385	0.0317383
1.882	-0.0195313	0.0508118	0.0312805
1.884	-0.0204468	0.0517273	0.0312805
1.886	-0.020752	0.0524902	0.0317383
1.888	-0.0213623	0.0531006	0.0317383
1.89	-0.0201416	0.0531006	0.032959
1.892	-0.017395	0.0523376	0.0349426
1.894	-0.0161743	0.0517273	0.035553
1.896	-0.0152588	0.0512695	0.0360107
1.898	-0.0137329	0.0508118	0.0370789
1.9	-0.0137329	0.0511169	0.037384
1.902	-0.0152588	0.0518799	0.0366211
1.904	-0.0152588	0.0524902	0.0372314
1.906	-0.0149536	0.0532532	0.0382996
1.908	-0.015564	0.0544739	0.0389099
1.91	-0.0146484	0.0552368	0.0405884
1.912	-0.0128174	0.0556946	0.0428772
1.914	-0.0119019	0.0564575	0.0445557
1.916	-0.0112915	0.0569153	0.0456238
1.918	-0.0100708	0.0569153	0.0468445
1.92	-0.00976563	0.0569153	0.0471497
1.922	-0.00976563	0.0566101	0.0468445
1.924	-0.00854492	0.0553894	0.0468445
1.926	-0.00732422	0.0541687	0.0468445
1.928	-0.00823975	0.0532532	0.0450134
1.93	-0.00915527	0.0526428	0.0434875
1.932	-0.00915527	0.0520325	0.0428772
1.934	-0.0106812	0.0523376	0.0416565
1.936	-0.012207	0.0531006	0.0408936
1.938	-0.0119019	0.0534058	0.0415039
1.94	-0.0119019	0.0537109	0.0418091
1.942	-0.0119019	0.0541687	0.0422668
1.944	-0.0100708	0.0540161	0.0439453
1.946	-0.00854492	0.0540161	0.0454712
1.948	-0.00854492	0.0544739	0.045929
1.95	-0.00854492	0.0549316	0.0463867
1.952	-0.00793457	0.0552368	0.0473022
1.954	-0.0088501	0.0561523	0.0473022
1.956	-0.010376	0.0572205	0.0468445
1.958	-0.0100708	0.0579834	0.0479126
1.96	-0.00976563	0.0585938	0.0488281
1.962	-0.00976563	0.0592041	0.0494385
1.964	-0.00823975	0.0592041	0.0509644
1.966	-0.00640869	0.0590515	0.0526428
1.968	-0.00610352	0.0592041	0.0531006
1.97	-0.00579834	0.0592041	0.0534058
1.972	-0.00518799	0.0588989	0.0537109
1.974	-0.00579834	0.0584412	0.0526428
1.976	-0.00671387	0.0575256	0.0508118
1.978	-0.00610352	0.0558472	0.0497437
1.98	-0.00610352	0.0544739	0.0483704
1.982	-0.00671387	0.0535583	0.0468445
1.984	-0.00549316	0.0521851	0.0466919
1.986	-0.00427246	0.0509644	0.0466919
1.988	-0.00457764	0.0508118	0.0462341
1.99	-0.00427246	0.0508118	0.0465393
1.992	-0.00305176	0.0509644	0.0479126
1.994	-0.00335693	0.0515747	0.0482178
1.996	-0.00396729	0.0521851	0.0482178
1.998	-0.00335693	0.0521851	0.0488281
2	-0.00396729	0.0523376	0.0483704
2.002	-0.00488281	0.0526428	0.04776
2.004	-0.00488281	0.0526428	0.04776
2.006	-0.00488281	0.0527954	0.0479126
2.008	-0.00549316	0.0534058	0.0479126
2.01	-0.00457764	0.0538635	0.0492859
2.012	-0.00183105	0.0541687	0.0523376
2.014	0	0.0550842	0.0550842
2.016	0.00152588	0.0561523	0.0576782
2.018	0.00488281	0.0567627	0.0616455
2.02	0.00732422	0.0578308	0.065155
2.022	0.00793457	0.059967	0.0679016
2.024	0.00854492	0.0630188	0.0715637
2.026	0.00854492	0.0669861	0.075531
2.028	0.00732422	0.0714111	0.0787354
2.03	0.00732422	0.0752258	0.08255
2.032	0.0088501	0.0775146	0.0863647
2.034	0.00976563	0.0790405	0.0888062
2.036	0.0112915	0.0794983	0.0907898
2.038	0.0149536	0.0788879	0.0938416
2.04	0.0189209	0.0776672	0.0965881
2.042	0.0228882	0.0762939	0.0991821
2.044	0.0286865	0.0744629	0.103149
2.046	0.03479	0.0724792	0.107269
2.048	0.0390625	0.0709534	0.110016
2.05	0.0424194	0.0692749	0.111694
2.052	0.0445557	0.0682068	0.112762
2.054	0.0436401	0.0679016	0.111542
2.056	0.0415039	0.0680542	0.109558
2.058	0.0396729	0.0671387	0.106812
2.06	0.0363159	0.0656128	0.101929
2.062	0.0320435	0.0630188	0.0950623
2.064	0.0292969	0.0592041	0.088501
2.066	0.0274658	0.0547791	0.0822449
2.068	0.0256348	0.0506592	0.0762939
2.07	0.0259399	0.0462341	0.0721741
2.072	0.0271606	0.0421143	0.0692749
2.074	0.0265503	0.0386047	0.065155
2.076	0.0256348	0.0346375	0.0602722
2.078	0.0250244	0.0300598	0.0550842
2.08	0.022583	0.0260925	0.0486755
2.082	0.017395	0.0227356	0.0401306
2.084	0.012207	0.0189209	0.0311279
2.086	0.00610352	0.0144958	0.0205994
2.088	-0.00152588	0.00976563	0.00823975
2.09	-0.00793457	0.00457764	-0.00335693
2.092	-0.012207	-0.000762939	-0.01297
2.094	-0.0161743	-0.00473022	-0.0209045
2.096	-0.0186157	-0.00778198	-0.0263977
2.098	-0.0183105	-0.0102234	-0.0285339
2.1	-0.0170898	-0.0119019	-0.0289917
2.102	-0.015564	-0.0128174	-0.0283813
2.104	-0.0125122	-0.0137329	-0.0262451
2.106	-0.00946045	-0.0144958	-0.0239563
2.108	-0.00762939	-0.014801	-0.0224304
2.11	-0.00549316	-0.015564	-0.0210571
2.112	-0.00335693	-0.0164795	-0.0198364
2.114	-0.00305176	-0.0167847	-0.0198364
2.116	-0.00305176	-0.0167847	-0.0198364
2.118	-0.00244141	-0.0167847	-0.0192261
2.12	-0.00274658	-0.0160217	-0.0187683
2.122	-0.00396729	-0.014801	-0.0187683
2.124	-0.00396729	-0.0138855	-0.0178528
2.126	-0.00396729	-0.0128174	-0.0167847
2.128	-0.00518799	-0.0115967	-0.0167847
2.13	-0.00518799	-0.0109863	-0.0161743
2.132	-0.00396729	-0.0112915	-0.0152588
2.134	-0.00396729	-0.0112915	-0.0152588
2.136	-0.00396729	-0.0111389	-0.0151062
2.138	-0.00244141	-0.0114441	-0.0138855
2.14	-0.0012207	-0.0126648	-0.0138855
2.142	-0.000305176	-0.0163269	-0.0166321
2.144	0.00274658	-0.0248718	-0.0221252
2.146	0.00762939	-0.0386047	-0.0309753
2.148	0.0112915	-0.0544739	-0.0431824
2.15	0.0146484	-0.0683594	-0.0537109
2.152	0.0177002	-0.0772095	-0.0595093
2.154	0.0189209	-0.0811768	-0.0622559
2.156	0.0222778	-0.0813293	-0.0590515
2.158	0.0302124	-0.0778198	-0.0476074
2.16	0.0424194	-0.0709534	-0.0285339
2.162	0.06073	-0.0614929	-0.000762939
2.164	0.0872803	-0.0480652	0.0392151
2.166	0.119934	-0.0262451	0.093689
2.168	0.154419	0.00747681	0.161896
2.17	0.190125	0.0549316	0.245056
2.172	0.223083	0.116577	0.339661
2.174	0.248108	0.191193	0.439301
2.176	0.262756	0.275421	0.538177
2.178	0.263977	0.361938	0.625916
2.18	0.246582	0.437317	0.683899
2.182	0.210266	0.487823	0.69809
2.184	0.161743	0.506439	0.668182
2.186	0.104065	0.494843	0.598907
2.188	0.0384521	0.459747	0.498199
2.19	-0.0302124	0.406494	0.376282
2.192	-0.0970459	0.338287	0.241241
2.194	-0.157471	0.257416	0.0999451
2.196	-0.204468	0.167236	-0.0372314
2.198	-0.232849	0.0733948	-0.159454
2.2	-0.244751	-0.014801	-0.259552
2.202	-0.241394	-0.0889587	-0.330353
2.204	-0.223694	-0.144348	-0.368042
2.206	-0.195313	-0.180206	-0.375519
2.208	-0.161438	-0.199585	-0.361023
2.21	-0.122986	-0.207214	-0.3302
2.212	-0.0839233	-0.207214	-0.291138
2.214	-0.0488281	-0.202332	-0.25116
2.216	-0.0192261	-0.194092	-0.213318
2.218	0.00488281	-0.182495	-0.177612
2.22	0.0195313	-0.166016	-0.146484
2.222	0.0253296	-0.144958	-0.119629
2.224	0.0256348	-0.122223	-0.0965881
2.226	0.0219727	-0.100098	-0.078125
2.228	0.0140381	-0.0813293	-0.0672913
2.23	0.00671387	-0.0692749	-0.062561
2.232	0.00183105	-0.0654602	-0.0636292
2.234	-0.00244141	-0.068512	-0.0709534
2.236	-0.00488281	-0.0764465	-0.0813293
2.238	-0.00457764	-0.0863647	-0.0909424
2.24	-0.00396729	-0.0946045	-0.0985718
2.242	-0.00396729	-0.0984192	-0.102386
2.244	-0.00335693	-0.0975037	-0.100861
2.246	-0.00305176	-0.0923157	-0.0953674
2.248	-0.00457764	-0.0845337	-0.0891113
2.25	-0.00518799	-0.0776672	-0.0828552
2.252	-0.00457764	-0.0732422	-0.0778198
2.254	-0.00427246	-0.0712585	-0.075531
2.256	-0.00335693	-0.0718689	-0.0752258
2.258	-0.000610352	-0.0741577	-0.0747681
2.26	0.0012207	-0.0759888	-0.0747681
2.262	0.000915527	-0.0761414	-0.0752258
2.264	0.0012207	-0.0747681	-0.0735474
2.266	0.00152588	-0.0717163	-0.0701904
2.268	0.000305176	-0.067749	-0.0674438
2.27	0	-0.0642395	-0.0642395
2.272	0.00152588	-0.0621033	-0.0605774
2.274	0.00244141	-0.0608826	-0.0584412
2.276	0.00305176	-0.0598145	-0.0567627
2.278	0.00518799	-0.0584412	-0.0532532
2.28	0.00579834	-0.0558472	-0.0500488
2.282	0.00549316	-0.0535583	-0.0480652
2.284	0.00640869	-0.0526428	-0.0462341
2.286	0.00732422	-0.0524902	-0.045166
2.288	0.00701904	-0.0523376	-0.0453186
2.29	0.00701904	-0.0520325	-0.0450134
2.292	0.00793457	-0.0518799	-0.0439453
2.294	0.00701904	-0.0511169	-0.0440979
2.296	0.00579834	-0.0505066	-0.0447083
2.298	0.00671387	-0.050354	-0.0436401
2.3	0.00823975	-0.0497437	-0.0415039
2.302	0.0088501	-0.0482178	-0.0393677
2.304	0.0106812	-0.045929	-0.0352478
2.306	0.0115967	-0.0427246	-0.0311279
2.308	0.0106812	-0.0386047	-0.0279236
2.31	0.010376	-0.0350952	-0.0247192
2.312	0.0112915	-0.0328064	-0.0215149
2.314	0.0115967	-0.0318909	-0.0202942
2.316	0.0112915	-0.0318909	-0.0205994
2.318	0.012207	-0.0331116	-0.0209045
2.32	0.0128174	-0.0344849	-0.0216675
2.322	0.0125122	-0.0352478	-0.0227356
2.324	0.0143433	-0.0357056	-0.0213623
2.326	0.0170898	-0.0354004	-0.0183105
2.328	0.0186157	-0.0338745	-0.0152588
2.33	0.0213623	-0.0320435	-0.0106812
2.332	0.0253296	-0.0308228	-0.00549316
2.334	0.0274658	-0.0296021	-0.00213623
2.336	0.0289917	-0.0283813	0.000610352
2.338	0.0314331	-0.027771	0.00366211
2.34	0.032959	-0.0270081	0.00595093
2.342	0.032959	-0.0259399	0.00701904
2.344	0.0335693	-0.0254822	0.00808716
2.346	0.03479	-0.0254822	0.00930786
2.348	0.0350952	-0.0259399	0.00915527
2.35	0.0366211	-0.0271606	0.00946045
2.352	0.039978	-0.0291443	0.0108337
2.354	0.0424194	-0.0309753	0.0114441
2.356	0.0448608	-0.0328064	0.0120544
2.358	0.0485229	-0.0346375	0.0138855
2.36	0.0518799	-0.0360107	0.0158691
2.362	0.0540161	-0.0367737	0.0172424
2.364	0.0567627	-0.037384	0.0193787
2.366	0.0598145	-0.0378418	0.0219727
2.368	0.0610352	-0.0378418	0.0231934
2.37	0.0634766	-0.0382996	0.025177
2.372	0.0668335	-0.0392151	0.0276184
2.374	0.0698853	-0.039978	0.0299072
2.376	0.0723267	-0.0408936	0.0314331
2.378	0.0769043	-0.0424194	0.0344849
2.38	0.0814819	-0.0442505	0.0372314
2.382	0.0854492	-0.0457764	0.0396729
2.384	0.090332	-0.0474548	0.0428772
2.386	0.0952148	-0.0482178	0.0469971
2.388	0.0982666	-0.0479126	0.050354
2.39	0.101929	-0.0473022	0.0546265
2.392	0.105896	-0.0465393	0.0593567
2.394	0.108337	-0.0454712	0.0628662
2.396	0.109863	-0.0442505	0.0656128
2.398	0.112	-0.0434875	0.068512
2.4	0.11322	-0.0424194	0.0708008
2.402	0.113525	-0.0405884	0.072937
2.404	0.114441	-0.0387573	0.0756836
2.406	0.115967	-0.0370789	0.0788879
2.408	0.116577	-0.0354004	0.0811768
2.41	0.117188	-0.0341797	0.0830078
2.412	0.118408	-0.0328064	0.0856018
2.414	0.116882	-0.0300598	0.0868225
2.416	0.113831	-0.0262451	0.0875854
2.418	0.110168	-0.0215149	0.0886536
2.42	0.10498	-0.0157166	0.0892639
2.422	0.0982666	-0.00946045	0.0888062
2.424	0.0924683	-0.00320435	0.0892639
2.426	0.0863647	0.00350952	0.0898743
2.428	0.0775146	0.0119019	0.0894165
2.43	0.0689697	0.0209045	0.0898743
2.432	0.0610352	0.0300598	0.091095
2.434	0.0506592	0.0398254	0.0904846
2.436	0.0393677	0.0492859	0.0886536
2.438	0.0292969	0.057373	0.0866699
2.44	0.0189209	0.0640869	0.0830078
2.442	0.00823975	0.0697327	0.0779724
2.444	-0.0012207	0.0735474	0.0723267
2.446	-0.010376	0.0759888	0.0656128
2.448	-0.0210571	0.0775146	0.0564575
2.45	-0.0308228	0.0775146	0.0466919
2.452	-0.0384521	0.0762939	0.0378418
2.454	-0.0460815	0.0747681	0.0286865
2.456	-0.0534058	0.0733948	0.019989
2.458	-0.0588989	0.0717163	0.0128174
2.46	-0.0634766	0.0701904	0.00671387
2.462	-0.067749	0.0688171	0.00106812
2.464	-0.0698853	0.0671387	-0.00274658
2.466	-0.071106	0.065155	-0.00595093
2.468	-0.0735474	0.063324	-0.0102234
2.47	-0.0750732	0.0613403	-0.0137329
2.472	-0.0744629	0.0585938	-0.0158691
2.474	-0.0744629	0.0556946	-0.0187683
2.476	-0.0744629	0.0526428	-0.0218201
2.478	-0.0735474	0.0491333	-0.0244141
2.48	-0.0732422	0.0456238	-0.0276184
2.482	-0.0735474	0.0428772	-0.0306702
2.484	-0.0732422	0.0405884	-0.0326538
2.486	-0.072937	0.0390625	-0.0338745
2.488	-0.072937	0.0382996	-0.0346375
2.49	-0.0720215	0.0378418	-0.0341797
2.492	-0.0695801	0.0375366	-0.0320435
2.494	-0.067749	0.0376892	-0.0300598
2.496	-0.065918	0.0378418	-0.0280762
2.498	-0.0628662	0.0375366	-0.0253296
2.5	-0.0604248	0.0372314	-0.0231934
2.502	-0.0582886	0.0367737	-0.0215149
2.504	-0.0552368	0.0358582	-0.0193787
2.506	-0.0527954	0.0352478	-0.0175476
2.508	-0.0527954	0.0352478	-0.0175476
2.51	-0.0527954	0.0350952	-0.0177002
2.512	-0.0512695	0.0344849	-0.0167847
2.514	-0.0506592	0.0341797	-0.0164795
2.516	-0.050354	0.0341797	-0.0161743
2.518	-0.0488281	0.0341797	-0.0146484
2.52	-0.0479126	0.0344849	-0.0134277
2.522	-0.0473022	0.0350952	-0.012207
2.524	-0.0457764	0.035553	-0.0102234
2.526	-0.0436401	0.035553	-0.00808716
2.528	-0.0430298	0.035553	-0.00747681
2.53	-0.0418091	0.03479	-0.00701904
2.532	-0.0396729	0.032959	-0.00671387
2.534	-0.0384521	0.0312805	-0.00717163
2.536	-0.0378418	0.0297546	-0.00808716
2.538	-0.0366211	0.0286865	-0.00793457
2.54	-0.0366211	0.0285339	-0.00808716
2.542	-0.0372314	0.0286865	-0.00854492
2.544	-0.0360107	0.0285339	-0.00747681
2.546	-0.0341797	0.0283813	-0.00579834
2.548	-0.0335693	0.0286865	-0.00488281
2.55	-0.0317383	0.0286865	-0.00305176
2.552	-0.0286865	0.0283813	-0.000305176
2.554	-0.0271606	0.0286865	0.00152588
2.556	-0.0265503	0.0291443	0.00259399
2.558	-0.0259399	0.0292969	0.00335693
2.56	-0.0265503	0.0296021	0.00305176
2.562	-0.0280762	0.0300598	0.00198364
2.564	-0.0280762	0.0300598	0.00198364
2.566	-0.0271606	0.0296021	0.00244141
2.568	-0.0265503	0.0289917	0.00244141
2.57	-0.0247192	0.0279236	0.00320435
2.572	-0.0213623	0.0263977	0.0050354
2.574	-0.0192261	0.0253296	0.00610352
2.576	-0.0177002	0.0245667	0.00686646
2.578	-0.015564	0.0233459	0.00778198
2.58	-0.0140381	0.0221252	0.00808716
2.582	-0.0140381	0.0212097	0.00717163
2.584	-0.0131226	0.0201416	0.00701904
2.586	-0.0128174	0.0193787	0.00656128
2.588	-0.0143433	0.0195313	0.00518799
2.59	-0.015564	0.0201416	0.00457764
2.592	-0.0149536	0.020752	0.00579834
2.594	-0.0149536	0.0219727	0.00701904
2.596	-0.0149536	0.0233459	0.00839233
2.598	-0.0134277	0.0242615	0.0108337
2.6	-0.0131226	0.0253296	0.012207
2.602	-0.0137329	0.0263977	0.0126648
2.604	-0.0128174	0.0270081	0.0141907
2.606	-0.0115967	0.0276184	0.0160217
2.608	-0.012207	0.0297546	0.0175476
2.61	-0.0125122	0.0320435	0.0195313
2.612	-0.0112915	0.0331116	0.0218201
2.614	-0.0109863	0.0320435	0.0210571
2.616	-0.0109863	0.0289917	0.0180054
2.618	-0.00976563	0.0250244	0.0152588
2.62	-0.0088501	0.0213623	0.0125122
2.622	-0.0088501	0.0189209	0.0100708
2.624	-0.00793457	0.0167847	0.0088501
2.626	-0.00701904	0.0154114	0.00839233
2.628	-0.00793457	0.0146484	0.00671387
2.63	-0.00823975	0.0143433	0.00610352
2.632	-0.00793457	0.0143433	0.00640869
2.634	-0.00854492	0.0154114	0.00686646
2.636	-0.0088501	0.0166321	0.00778198
2.638	-0.00671387	0.0170898	0.010376
2.64	-0.00488281	0.0169373	0.0120544
2.642	-0.00427246	0.0166321	0.0123596
2.644	-0.00335693	0.0157166	0.0123596
2.646	-0.00244141	0.0144958	0.0120544
2.648	-0.00335693	0.0135803	0.0102234
2.65	-0.00427246	0.0125122	0.00823975
2.652	-0.00488281	0.0115967	0.00671387
2.654	-0.00610352	0.0109863	0.00488281
2.656	-0.00732422	0.0105286	0.00320435
2.658	-0.00732422	0.00991821	0.00259399
2.66	-0.00793457	0.00976563	0.00183105
2.662	-0.00976563	0.0100708	0.000305176
2.664	-0.010376	0.00961304	-0.000762939
2.666	-0.0100708	0.00854492	-0.00152588
2.668	-0.010376	0.00717163	-0.00320435
2.67	-0.00976563	0.00564575	-0.00411987
2.672	-0.00823975	0.00411987	-0.00411987
2.674	-0.00823975	0.00335693	-0.00488281
2.676	-0.00854492	0.00320435	-0.00534058
2.678	-0.00823975	0.00305176	-0.00518799
2.68	-0.00854492	0.00366211	-0.00488281
2.682	-0.010376	0.00457764	-0.00579834
2.684	-0.0106812	0.00473022	-0.00595093
2.686	-0.010376	0.00411987	-0.0062561
2.688	-0.0115967	0.00320435	-0.00839233
2.69	-0.012207	0.00183105	-0.010376
2.692	-0.010376	-0.000457764	-0.0108337
2.694	-0.00915527	-0.00213623	-0.0112915
2.696	-0.00854492	-0.00305176	-0.0115967
2.698	-0.00762939	-0.00350952	-0.0111389
2.7	-0.00762939	-0.00366211	-0.0112915
2.702	-0.00793457	-0.00350952	-0.0114441
2.704	-0.00671387	-0.00396729	-0.0106812
2.706	-0.00549316	-0.00442505	-0.00991821
2.708	-0.00732422	-0.0038147	-0.0111389
2.71	-0.00854492	-0.00350952	-0.0120544
2.712	-0.00823975	-0.0038147	-0.0120544
2.714	-0.00793457	-0.00411987	-0.0120544
2.716	-0.00762939	-0.00488281	-0.0125122
2.718	-0.00610352	-0.0062561	-0.0123596
2.72	-0.00549316	-0.00732422	-0.0128174
2.722	-0.00640869	-0.00793457	-0.0143433
2.724	-0.00640869	-0.00869751	-0.0151062
2.726	-0.00579834	-0.00946045	-0.0152588
2.728	-0.00610352	-0.00930786	-0.0154114
2.73	-0.00640869	-0.00869751	-0.0151062
2.732	-0.00640869	-0.00778198	-0.0141907
2.734	-0.00793457	-0.00610352	-0.0140381
2.736	-0.0100708	-0.00442505	-0.0144958
2.738	-0.010376	-0.00320435	-0.0135803
2.74	-0.0112915	-0.00198364	-0.0132751
2.742	-0.012207	-0.0012207	-0.0134277
2.744	-0.0109863	-0.00167847	-0.0126648
2.746	-0.00946045	-0.00274658	-0.012207
2.748	-0.00946045	-0.00366211	-0.0131226
2.75	-0.00915527	-0.00473022	-0.0138855
2.752	-0.00762939	-0.00671387	-0.0143433
2.754	-0.00701904	-0.00839233	-0.0154114
2.756	-0.00732422	-0.00976563	-0.0170898
2.758	-0.00671387	-0.0109863	-0.0177002
2.76	-0.00671387	-0.0117493	-0.0184631
2.762	-0.00823975	-0.0114441	-0.0196838
2.764	-0.00854492	-0.0111389	-0.0196838
2.766	-0.00793457	-0.0108337	-0.0187683
2.768	-0.00793457	-0.0106812	-0.0186157
2.77	-0.00701904	-0.0111389	-0.018158
2.772	-0.00518799	-0.0123596	-0.0175476
2.774	-0.00488281	-0.0132751	-0.018158
2.776	-0.00579834	-0.0137329	-0.0195313
2.778	-0.00549316	-0.0143433	-0.0198364
2.78	-0.00610352	-0.0143433	-0.0204468
2.782	-0.00823975	-0.0137329	-0.0219727
2.784	-0.00915527	-0.0134277	-0.022583
2.786	-0.00946045	-0.0131226	-0.022583
2.788	-0.0112915	-0.0125122	-0.0238037
2.79	-0.0119019	-0.0119019	-0.0238037
2.792	-0.010376	-0.0115967	-0.0219727
2.794	-0.00946045	-0.0108337	-0.0202942
2.796	-0.00854492	-0.00991821	-0.0184631
2.798	-0.00610352	-0.00930786	-0.0154114
2.8	-0.00457764	-0.0088501	-0.0134277
2.802	-0.00488281	-0.00793457	-0.0128174
2.804	-0.00427246	-0.00717163	-0.0114441
2.806	-0.00396729	-0.00671387	-0.0106812
2.808	-0.00518799	-0.00640869	-0.0115967
2.81	-0.00610352	-0.00656128	-0.0126648
2.812	-0.00610352	-0.00747681	-0.0135803
2.814	-0.00701904	-0.00823975	-0.0152588
2.816	-0.00793457	-0.00930786	-0.0172424
2.818	-0.00701904	-0.0108337	-0.0178528
2.82	-0.00579834	-0.0125122	-0.0183105
2.822	-0.00579834	-0.0141907	-0.019989
2.824	-0.00488281	-0.0161743	-0.0210571
2.826	-0.00396729	-0.0177002	-0.0216675
2.828	-0.00488281	-0.0180054	-0.0228882
2.83	-0.00549316	-0.0178528	-0.0233459
2.832	-0.00488281	-0.0177002	-0.022583
2.834	-0.00518799	-0.0172424	-0.0224304
2.836	-0.00579834	-0.0166321	-0.0224304
2.838	-0.00488281	-0.0164795	-0.0213623
2.84	-0.00427246	-0.0160217	-0.0202942
2.842	-0.00457764	-0.0154114	-0.019989
2.844	-0.00366211	-0.0151062	-0.0187683
2.846	-0.00213623	-0.0149536	-0.0170898
2.848	-0.00244141	-0.0144958	-0.0169373
2.85	-0.00274658	-0.0141907	-0.0169373
2.852	-0.00183105	-0.0144958	-0.0163269
2.854	-0.00152588	-0.0143433	-0.0158691
2.856	-0.00183105	-0.0138855	-0.0157166
2.858	-0.000305176	-0.0135803	-0.0138855
2.86	0.000915527	-0.0131226	-0.012207
2.862	0.000915527	-0.012207	-0.0112915
2.864	0.00244141	-0.0115967	-0.00915527
2.866	0.00427246	-0.0114441	-0.00717163
2.868	0.00427246	-0.0108337	-0.00656128
2.87	0.00457764	-0.00991821	-0.00534058
2.872	0.00579834	-0.00854492	-0.00274658
2.874	0.00579834	-0.00640869	-0.000610352
2.876	0.00518799	-0.00366211	0.00152588
2.878	0.00549316	-0.000915527	0.00457764
2.88	0.00549316	0.00213623	0.00762939
2.882	0.00457764	0.00564575	0.0102234
2.884	0.00488281	0.00839233	0.0132751
2.886	0.00579834	0.0106812	0.0164795
2.888	0.00640869	0.0137329	0.0201416
2.89	0.00823975	0.0170898	0.0253296
2.892	0.0128174	0.0198364	0.0326538
2.894	0.0177002	0.0210571	0.0387573
2.896	0.0228882	0.0202942	0.0431824
2.898	0.0286865	0.0184631	0.0471497
2.9	0.0326538	0.0166321	0.0492859
2.902	0.0338745	0.0151062	0.0489807
2.904	0.0341797	0.0132751	0.0474548
2.906	0.0341797	0.0108337	0.0450134
2.908	0.0317383	0.00823975	0.039978
2.91	0.0292969	0.0050354	0.0343323
2.912	0.0274658	0.00152588	0.0289917
2.914	0.0244141	-0.00137329	0.0230408
2.916	0.0201416	-0.0038147	0.0163269
2.918	0.017395	-0.00610352	0.0112915
2.92	0.0146484	-0.00778198	0.00686646
2.922	0.0112915	-0.00900269	0.00228882
2.924	0.0088501	-0.010376	-0.00152588
2.926	0.00671387	-0.0123596	-0.00564575
2.928	0.00396729	-0.0151062	-0.0111389
2.93	0.00213623	-0.0189209	-0.0167847
2.932	0.0012207	-0.0234985	-0.0222778
2.934	-0.00183105	-0.0276184	-0.0294495
2.936	-0.00701904	-0.0312805	-0.0382996
2.938	-0.012207	-0.0352478	-0.0474548
2.94	-0.0180054	-0.0387573	-0.0567627
2.942	-0.0238037	-0.0419617	-0.0657654
2.944	-0.0262451	-0.045166	-0.0714111
2.946	-0.0268555	-0.0480652	-0.0749207
2.948	-0.027771	-0.0500488	-0.0778198
2.95	-0.0280762	-0.0511169	-0.0791931
2.952	-0.0265503	-0.0515747	-0.078125
2.954	-0.0259399	-0.0512695	-0.0772095
2.956	-0.0262451	-0.050354	-0.0765991
2.958	-0.0253296	-0.0495911	-0.0749207
2.96	-0.0244141	-0.0485229	-0.072937
2.962	-0.0241089	-0.0473022	-0.0714111
2.964	-0.0219727	-0.0465393	-0.068512
2.966	-0.0189209	-0.045929	-0.0648499
2.968	-0.0180054	-0.0447083	-0.0627136
2.97	-0.0183105	-0.0428772	-0.0611877
2.972	-0.0189209	-0.0404358	-0.0593567
2.974	-0.0210571	-0.0376892	-0.0587463
2.976	-0.0222778	-0.035553	-0.0578308
2.978	-0.0213623	-0.0344849	-0.0558472
2.98	-0.0201416	-0.0338745	-0.0540161
2.982	-0.0201416	-0.0326538	-0.0527954
2.984	-0.0195313	-0.0315857	-0.0511169
2.986	-0.0186157	-0.0309753	-0.0495911
2.988	-0.0189209	-0.0305176	-0.0494385
2.99	-0.0192261	-0.0308228	-0.0500488
2.992	-0.0180054	-0.0331116	-0.0511169
2.994	-0.0164795	-0.0384521	-0.0549316
2.996	-0.0137329	-0.0485229	-0.0622559
2.998	-0.00854492	-0.0634766	-0.0720215
3	-0.00427246	-0.0787354	-0.0830078
3.002	-0.00305176	-0.0894165	-0.0924683
3.004	-0.00213623	-0.0933838	-0.09552
3.006	-0.000915527	-0.0906372	-0.0915527
3.008	0.0012207	-0.0816345	-0.0804138
3.01	0.00854492	-0.0692749	-0.06073
3.012	0.0238037	-0.055542	-0.0317383
3.014	0.0460815	-0.0392151	0.00686646
3.016	0.0747681	-0.0175476	0.0572205
3.018	0.109253	0.01297	0.122223
3.02	0.144653	0.0550842	0.199738
3.022	0.177612	0.110168	0.287781
3.024	0.205994	0.177155	0.383148
3.026	0.225525	0.255432	0.480957
3.028	0.230103	0.342712	0.572815
3.03	0.218201	0.428619	0.64682
3.032	0.19043	0.495605	0.686035
3.034	0.14801	0.532684	0.680695
3.036	0.09552	0.538025	0.633545
3.038	0.0390625	0.516663	0.555725
3.04	-0.0216675	0.477753	0.456085
3.042	-0.0857544	0.426025	0.340271
3.044	-0.144653	0.360413	0.215759
3.046	-0.192261	0.279999	0.087738
3.048	-0.22522	0.188141	-0.0370789
3.05	-0.240784	0.0920105	-0.148773
3.052	-0.240173	0.00244141	-0.237732
3.054	-0.227661	-0.0708008	-0.298462
3.056	-0.205688	-0.123444	-0.329132
3.058	-0.175476	-0.157166	-0.332642
3.06	-0.142212	-0.176086	-0.318298
3.062	-0.108948	-0.184479	-0.293427
3.064	-0.0753784	-0.186157	-0.261536
3.066	-0.0442505	-0.183411	-0.227661
3.068	-0.0189209	-0.175934	-0.194855
3.07	0	-0.163269	-0.163269
3.072	0.0134277	-0.145569	-0.132141
3.074	0.0198364	-0.123444	-0.103607
3.076	0.0201416	-0.0997925	-0.0796509
3.078	0.017395	-0.0785828	-0.0611877
3.08	0.0125122	-0.0628662	-0.050354
3.082	0.00640869	-0.0541687	-0.04776
3.084	0.00244141	-0.0535583	-0.0511169
3.086	0.000305176	-0.0585938	-0.0582886
3.088	-0.00213623	-0.0657654	-0.0679016
3.09	-0.00305176	-0.0724792	-0.075531
3.092	-0.00183105	-0.0762939	-0.078125
3.094	-0.00183105	-0.0756836	-0.0775146
3.096	-0.00244141	-0.0709534	-0.0733948
3.098	-0.00152588	-0.0648499	-0.0663757
3.1	-0.000915527	-0.0587463	-0.0596619
3.102	-0.000915527	-0.0544739	-0.0553894
3.104	0.000610352	-0.052948	-0.0523376
3.106	0.00244141	-0.0537109	-0.0512695
3.108	0.00305176	-0.0552368	-0.0521851
3.11	0.00457764	-0.0572205	-0.0526428
3.112	0.00732422	-0.0584412	-0.0511169
3.114	0.00823975	-0.0575256	-0.0492859
3.116	0.00793457	-0.0544739	-0.0465393
3.118	0.00793457	-0.0506592	-0.0427246
3.12	0.00732422	-0.0469971	-0.0396729
3.122	0.00518799	-0.0440979	-0.0389099
3.124	0.00488281	-0.0430298	-0.038147
3.126	0.00610352	-0.043335	-0.0372314
3.128	0.00640869	-0.0437927	-0.037384
3.13	0.00732422	-0.0439453	-0.0366211
3.132	0.00946045	-0.0437927	-0.0343323
3.134	0.0106812	-0.0428772	-0.032196
3.136	0.0109863	-0.0410461	-0.0300598
3.138	0.012207	-0.0390625	-0.0268555
3.14	0.0125122	-0.0367737	-0.0242615
3.142	0.0112915	-0.03479	-0.0234985
3.144	0.0112915	-0.0337219	-0.0224304
3.146	0.0115967	-0.0337219	-0.0221252
3.148	0.0109863	-0.0338745	-0.0228882
3.15	0.0106812	-0.0341797	-0.0234985
3.152	0.0112915	-0.0341797	-0.0228882
3.154	0.0112915	-0.032959	-0.0216675
3.156	0.0115967	-0.0308228	-0.0192261
3.158	0.0137329	-0.0289917	-0.0152588
3.16	0.0161743	-0.0274658	-0.0112915
3.162	0.0170898	-0.0267029	-0.00961304
3.164	0.0189209	-0.0273132	-0.00839233
3.166	0.0216675	-0.0288391	-0.00717163
3.168	0.0228882	-0.030365	-0.00747681
3.17	0.0238037	-0.0314331	-0.00762939
3.172	0.0250244	-0.0315857	-0.00656128
3.174	0.0250244	-0.0309753	-0.00595093
3.176	0.0244141	-0.0296021	-0.00518799
3.178	0.0256348	-0.0291443	-0.00350952
3.18	0.0268555	-0.0291443	-0.00228882
3.182	0.0271606	-0.0292969	-0.00213623
3.184	0.0283813	-0.0299072	-0.00152588
3.186	0.0299072	-0.0296021	0.000305176
3.188	0.0302124	-0.0285339	0.00167847
3.19	0.0317383	-0.0279236	0.0038147
3.192	0.0344849	-0.0292969	0.00518799
3.194	0.0363159	-0.0314331	0.00488281
3.196	0.0372314	-0.0338745	0.00335693
3.198	0.039978	-0.0367737	0.00320435
3.2	0.0427246	-0.0389099	0.0038147
3.202	0.0442505	-0.0404358	0.0038147
3.204	0.0469971	-0.0424194	0.00457764
3.206	0.0497437	-0.0447083	0.0050354
3.208	0.050354	-0.0466919	0.00366211
3.21	0.0515747	-0.0482178	0.00335693
3.212	0.0540161	-0.0494385	0.00457764
3.214	0.0558472	-0.0498962	0.00595093
3.216	0.0579834	-0.0502014	0.00778198
3.218	0.0619507	-0.0512695	0.0106812
3.22	0.0665283	-0.0527954	0.0137329
3.222	0.0701904	-0.0541687	0.0160217
3.224	0.0756836	-0.0559998	0.0196838
3.226	0.0817871	-0.0584412	0.0233459
3.228	0.0854492	-0.0604248	0.0250244
3.23	0.0875854	-0.0622559	0.0253296
3.232	0.0897217	-0.0640869	0.0256348
3.234	0.0912476	-0.0656128	0.0256348
3.236	0.0921631	-0.0665283	0.0256348
3.238	0.0946045	-0.0674438	0.0271606
3.24	0.0973511	-0.0680542	0.0292969
3.242	0.0994873	-0.068512	0.0309753
3.244	0.103149	-0.0697327	0.0334167
3.246	0.108032	-0.0712585	0.0367737
3.248	0.111389	-0.0721741	0.0392151
3.25	0.114746	-0.0727844	0.0419617
3.252	0.119019	-0.072937	0.0460815
3.254	0.121155	-0.0709534	0.0502014
3.256	0.12146	-0.0675964	0.0538635
3.258	0.121765	-0.0642395	0.0575256
3.26	0.120544	-0.0621033	0.0584412
3.262	0.117188	-0.06073	0.0564575
3.264	0.115356	-0.0598145	0.055542
3.266	0.113831	-0.0584412	0.0553894
3.268	0.110474	-0.0558472	0.0546265
3.27	0.106812	-0.0526428	0.0541687
3.272	0.10376	-0.0492859	0.0544739
3.274	0.098877	-0.0448608	0.0540161
3.276	0.0918579	-0.0393677	0.0524902
3.278	0.0848389	-0.0326538	0.0521851
3.28	0.0759888	-0.0242615	0.0517273
3.282	0.0650024	-0.0144958	0.0505066
3.284	0.0543213	-0.00488281	0.0494385
3.286	0.0448608	0.00442505	0.0492859
3.288	0.0344849	0.0132751	0.04776
3.29	0.0247192	0.020752	0.0454712
3.292	0.0164795	0.0263977	0.0428772
3.294	0.00671387	0.0306702	0.037384
3.296	-0.00366211	0.0334167	0.0297546
3.298	-0.0125122	0.0341797	0.0216675
3.3	-0.0213623	0.0341797	0.0128174
3.302	-0.0308228	0.0343323	0.00350952
3.304	-0.038147	0.0341797	-0.00396729
3.306	-0.0442505	0.0335693	-0.0106812
3.308	-0.0509644	0.0325012	-0.0184631
3.31	-0.0567627	0.030365	-0.0263977
3.312	-0.06073	0.0273132	-0.0334167
3.314	-0.0646973	0.0242615	-0.0404358
3.316	-0.0683594	0.0212097	-0.0471497
3.318	-0.0692749	0.0178528	-0.0514221
3.32	-0.0689697	0.0154114	-0.0535583
3.322	-0.0695801	0.0143433	-0.0552368
3.324	-0.0692749	0.0140381	-0.0552368
3.326	-0.0686646	0.0126648	-0.0559998
3.328	-0.0701904	0.0100708	-0.0601196
3.33	-0.0714111	0.00656128	-0.0648499
3.332	-0.0717163	0.00335693	-0.0683594
3.334	-0.0723267	0.0012207	-0.071106
3.336	-0.072937	-0.000305176	-0.0732422
3.338	-0.0720215	-0.00213623	-0.0741577
3.34	-0.0708008	-0.00411987	-0.0749207
3.342	-0.0704956	-0.00595093	-0.0764465
3.344	-0.0686646	-0.00793457	-0.0765991
3.346	-0.0656128	-0.00991821	-0.075531
3.348	-0.0640869	-0.0111389	-0.0752258
3.35	-0.062561	-0.0117493	-0.0743103
3.352	-0.0598145	-0.0120544	-0.0718689
3.354	-0.0579834	-0.0115967	-0.0695801
3.356	-0.0564575	-0.0108337	-0.0672913
3.358	-0.0540161	-0.0100708	-0.0640869
3.36	-0.0527954	-0.00930786	-0.0621033
3.362	-0.0531006	-0.00823975	-0.0613403
3.364	-0.0524902	-0.00747681	-0.059967
3.366	-0.0509644	-0.00701904	-0.0579834
3.368	-0.050354	-0.00640869	-0.0567627
3.37	-0.0488281	-0.0062561	-0.0550842
3.372	-0.0463867	-0.00640869	-0.0527954
3.374	-0.045166	-0.00671387	-0.0518799
3.376	-0.0442505	-0.00778198	-0.0520325
3.378	-0.0421143	-0.00946045	-0.0515747
3.38	-0.0402832	-0.0102234	-0.0505066
3.382	-0.039978	-0.00976563	-0.0497437
3.384	-0.0390625	-0.00991821	-0.0489807
3.386	-0.0378418	-0.0115967	-0.0494385
3.388	-0.0378418	-0.0134277	-0.0512695
3.39	-0.0378418	-0.014801	-0.0526428
3.392	-0.0366211	-0.0154114	-0.0520325
3.394	-0.0360107	-0.0151062	-0.0511169
3.396	-0.0363159	-0.0138855	-0.0502014
3.398	-0.03479	-0.01297	-0.04776
3.4	-0.0332642	-0.012207	-0.0454712
3.402	-0.0335693	-0.0106812	-0.0442505
3.404	-0.032959	-0.00915527	-0.0421143
3.406	-0.0320435	-0.00778198	-0.0398254
3.408	-0.0323486	-0.0062561	-0.0386047
3.41	-0.032959	-0.00473022	-0.0376892
3.412	-0.0320435	-0.00396729	-0.0360107
3.414	-0.0311279	-0.0038147	-0.0349426
3.416	-0.0299072	-0.00457764	-0.0344849
3.418	-0.0274658	-0.00610352	-0.0335693
3.42	-0.0262451	-0.00762939	-0.0338745
3.422	-0.0265503	-0.00854492	-0.0350952
3.424	-0.0265503	-0.00930786	-0.0358582
3.426	-0.0259399	-0.00976563	-0.0357056
3.428	-0.0262451	-0.00961304	-0.0358582
3.43	-0.0256348	-0.00930786	-0.0349426
3.432	-0.0228882	-0.00961304	-0.0325012
3.434	-0.020752	-0.00961304	-0.030365
3.436	-0.0204468	-0.00930786	-0.0297546
3.438	-0.0195313	-0.00900269	-0.0285339
3.44	-0.0195313	-0.00839233	-0.0279236
3.442	-0.0216675	-0.00747681	-0.0291443
3.444	-0.0222778	-0.00732422	-0.0296021
3.446	-0.0216675	-0.00762939	-0.0292969
3.448	-0.0219727	-0.00732422	-0.0292969
3.45	-0.0210571	-0.00686646	-0.0279236
3.452	-0.0192261	-0.00656128	-0.0257874
3.454	-0.0180054	-0.00595093	-0.0239563
3.456	-0.0180054	-0.00488281	-0.0228882
3.458	-0.0167847	-0.00427246	-0.0210571
3.46	-0.015564	-0.00366211	-0.0192261
3.462	-0.0152588	-0.00335693	-0.0186157
3.464	-0.0140381	-0.0038147	-0.0178528
3.466	-0.0119019	-0.00442505	-0.0163269
3.468	-0.012207	-0.00457764	-0.0167847
3.47	-0.0128174	-0.00442505	-0.0172424
3.472	-0.0131226	-0.00457764	-0.0177002
3.474	-0.0140381	-0.00488281	-0.0189209
3.476	-0.0146484	-0.00610352	-0.020752
3.478	-0.0134277	-0.00808716	-0.0215149
3.48	-0.0125122	-0.0100708	-0.022583
3.482	-0.0131226	-0.0109863	-0.0241089
3.484	-0.0134277	-0.0112915	-0.0247192
3.486	-0.0131226	-0.0111389	-0.0242615
3.488	-0.0143433	-0.0100708	-0.0244141
3.49	-0.015564	-0.00839233	-0.0239563
3.492	-0.0152588	-0.00701904	-0.0222778
3.494	-0.0146484	-0.0062561	-0.0209045
3.496	-0.0146484	-0.00564575	-0.0202942
3.498	-0.0128174	-0.00564575	-0.0184631
3.5	-0.0115967	-0.00579834	-0.017395
3.502	-0.0115967	-0.0062561	-0.0178528
3.504	-0.0109863	-0.00732422	-0.0183105
3.506	-0.010376	-0.00869751	-0.0190735
3.508	-0.0119019	-0.00946045	-0.0213623
3.51	-0.0134277	-0.010376	-0.0238037
3.512	-0.0140381	-0.0112915	-0.0253296
3.514	-0.015564	-0.0117493	-0.0273132
3.516	-0.017395	-0.0119019	-0.0292969
3.518	-0.0177002	-0.0120544	-0.0297546
3.52	-0.0180054	-0.0120544	-0.0300598
3.522	-0.0195313	-0.0112915	-0.0308228
3.524	-0.0195313	-0.0106812	-0.0302124
3.526	-0.0180054	-0.0102234	-0.0282288
3.528	-0.0167847	-0.00930786	-0.0260925
3.53	-0.0152588	-0.00869751	-0.0239563
3.532	-0.0125122	-0.00869751	-0.0212097
3.534	-0.0115967	-0.00869751	-0.0202942
3.536	-0.0119019	-0.00854492	-0.0204468
3.538	-0.012207	-0.00869751	-0.0209045
3.54	-0.0131226	-0.0088501	-0.0219727
3.542	-0.0149536	-0.0088501	-0.0238037
3.544	-0.015564	-0.00900269	-0.0245667
3.546	-0.0149536	-0.00900269	-0.0239563
3.548	-0.015564	-0.00854492	-0.0241089
3.55	-0.015564	-0.00778198	-0.0233459
3.552	-0.0149536	-0.00732422	-0.0222778
3.554	-0.0149536	-0.00640869	-0.0213623
3.556	-0.0158691	-0.00518799	-0.0210571
3.558	-0.0152588	-0.00473022	-0.019989
3.56	-0.0143433	-0.00442505	-0.0187683
3.562	-0.0143433	-0.00427246	-0.0186157
3.564	-0.0137329	-0.00457764	-0.0183105
3.566	-0.0131226	-0.0050354	-0.018158
3.568	-0.0140381	-0.00534058	-0.0193787
3.57	-0.0146484	-0.0062561	-0.0209045
3.572	-0.0140381	-0.00732422	-0.0213623
3.574	-0.0140381	-0.00778198	-0.0218201
3.576	-0.0143433	-0.00762939	-0.0219727
3.578	-0.0134277	-0.00747681	-0.0209045
3.58	-0.0128174	-0.00686646	-0.0196838
3.582	-0.0137329	-0.00564575	-0.0193787
3.584	-0.0140381	-0.00473022	-0.0187683
3.586	-0.0131226	-0.00442505	-0.0175476
3.588	-0.0131226	-0.00396729	-0.0170898
3.59	-0.0131226	-0.00289917	-0.0160217
3.592	-0.012207	-0.0012207	-0.0134277
3.594	-0.012207	0.000915527	-0.0112915
3.596	-0.0137329	0.00213623	-0.0115967
3.598	-0.0137329	0.0012207	-0.0125122
3.6	-0.0131226	-0.000915527	-0.0140381
3.602	-0.0131226	-0.00320435	-0.0163269
3.604	-0.0125122	-0.00534058	-0.0178528
3.606	-0.0115967	-0.00717163	-0.0187683
3.608	-0.0119019	-0.00839233	-0.0202942
3.61	-0.0115967	-0.00961304	-0.0212097
3.612	-0.00976563	-0.0105286	-0.0202942
3.614	-0.0088501	-0.00976563	-0.0186157
3.616	-0.00946045	-0.00732422	-0.0167847
3.618	-0.0088501	-0.00488281	-0.0137329
3.62	-0.00854492	-0.00366211	-0.012207
3.622	-0.010376	-0.00289917	-0.0132751
3.624	-0.0112915	-0.00259399	-0.0138855
3.626	-0.0115967	-0.00259399	-0.0141907
3.628	-0.0125122	-0.00289917	-0.0154114
3.63	-0.0125122	-0.00442505	-0.0169373
3.632	-0.0109863	-0.00686646	-0.0178528
3.634	-0.00976563	-0.00961304	-0.0193787
3.636	-0.0088501	-0.012207	-0.0210571
3.638	-0.00701904	-0.0143433	-0.0213623
3.64	-0.00640869	-0.0149536	-0.0213623
3.642	-0.00732422	-0.0140381	-0.0213623
3.644	-0.00732422	-0.0126648	-0.019989
3.646	-0.00671387	-0.0111389	-0.0178528
3.648	-0.00762939	-0.00946045	-0.0170898
3.65	-0.00823975	-0.00823975	-0.0164795
3.652	-0.00762939	-0.00793457	-0.015564
3.654	-0.00793457	-0.00778198	-0.0157166
3.656	-0.0088501	-0.00732422	-0.0161743
3.658	-0.00854492	-0.00732422	-0.0158691
3.66	-0.00793457	-0.00717163	-0.0151062
3.662	-0.00854492	-0.00671387	-0.0152588
3.664	-0.00854492	-0.0062561	-0.014801
3.666	-0.00732422	-0.00595093	-0.0132751
3.668	-0.00793457	-0.00564575	-0.0135803
3.67	-0.00823975	-0.00579834	-0.0140381
3.672	-0.00762939	-0.00686646	-0.0144958
3.674	-0.00732422	-0.00823975	-0.015564
3.676	-0.00732422	-0.00961304	-0.0169373
3.678	-0.00518799	-0.0112915	-0.0164795
3.68	-0.00335693	-0.012207	-0.015564
3.682	-0.00396729	-0.0115967	-0.015564
3.684	-0.00488281	-0.00946045	-0.0143433
3.686	-0.00579834	-0.00579834	-0.0115967
3.688	-0.00732422	-0.00152588	-0.0088501
3.69	-0.00793457	0.00137329	-0.00656128
3.692	-0.00549316	0.0012207	-0.00427246
3.694	-0.00305176	-0.000610352	-0.00366211
3.696	-0.00152588	-0.00198364	-0.00350952
3.698	0.000915527	-0.00259399	-0.00167847
3.7	0.00274658	-0.00167847	0.00106812
3.702	0.00305176	0.000762939	0.0038147
3.704	0.00488281	0.00320435	0.00808716
3.706	0.00762939	0.00518799	0.0128174
3.708	0.00793457	0.00823975	0.0161743
3.71	0.00640869	0.012207	0.0186157
3.712	0.00610352	0.0161743	0.0222778
3.714	0.00610352	0.0195313	0.0256348
3.716	0.00640869	0.0219727	0.0283813
3.718	0.00946045	0.0228882	0.0323486
3.72	0.0134277	0.0222778	0.0357056
3.722	0.017395	0.0210571	0.0384521
3.724	0.0222778	0.0196838	0.0419617
3.726	0.027771	0.0190735	0.0468445
3.728	0.0311279	0.0204468	0.0515747
3.73	0.0332642	0.022583	0.0558472
3.732	0.0350952	0.0247192	0.0598145
3.734	0.0341797	0.0273132	0.0614929
3.736	0.0308228	0.0294495	0.0602722
3.738	0.0280762	0.0296021	0.0576782
3.74	0.0250244	0.027771	0.0527954
3.742	0.0210571	0.0242615	0.0453186
3.744	0.0189209	0.0186157	0.0375366
3.746	0.0183105	0.0114441	0.0297546
3.748	0.0164795	0.00488281	0.0213623
3.75	0.0149536	-0.000610352	0.0143433
3.752	0.0146484	-0.00488281	0.00976563
3.754	0.0131226	-0.00747681	0.00564575
3.756	0.0106812	-0.00854492	0.00213623
3.758	0.0088501	-0.00946045	-0.000610352
3.76	0.00579834	-0.0102234	-0.00442505
3.762	0.000610352	-0.0111389	-0.0105286
3.764	-0.00396729	-0.0137329	-0.0177002
3.766	-0.00762939	-0.0175476	-0.025177
3.768	-0.0125122	-0.0215149	-0.0340271
3.77	-0.0164795	-0.0248718	-0.0413513
3.772	-0.0180054	-0.027771	-0.0457764
3.774	-0.0198364	-0.0306702	-0.0505066
3.776	-0.0216675	-0.0340271	-0.0556946
3.778	-0.0219727	-0.0378418	-0.0598145
3.78	-0.0222778	-0.0401306	-0.0624084
3.782	-0.0241089	-0.0404358	-0.0645447
3.784	-0.0250244	-0.0395203	-0.0645447
3.786	-0.0244141	-0.0384521	-0.0628662
3.788	-0.0244141	-0.0375366	-0.0619507
3.79	-0.0231934	-0.0376892	-0.0608826
3.792	-0.0201416	-0.0386047	-0.0587463
3.794	-0.0183105	-0.0390625	-0.057373
3.796	-0.017395	-0.0390625	-0.0564575
3.798	-0.015564	-0.0386047	-0.0541687
3.8	-0.0140381	-0.0375366	-0.0515747
3.802	-0.0140381	-0.0360107	-0.0500488
3.804	-0.0134277	-0.03479	-0.0482178
3.806	-0.0125122	-0.0338745	-0.0463867
3.808	-0.0134277	-0.0328064	-0.0462341
3.81	-0.0146484	-0.0317383	-0.0463867
3.812	-0.0149536	-0.0311279	-0.0460815
3.814	-0.0161743	-0.0305176	-0.0466919
3.816	-0.0180054	-0.0294495	-0.0474548
3.818	-0.0180054	-0.0286865	-0.0466919
3.82	-0.0167847	-0.0285339	-0.0453186
3.822	-0.0161743	-0.0300598	-0.0462341
3.824	-0.0137329	-0.035553	-0.0492859
3.826	-0.00915527	-0.0462341	-0.0553894
3.828	-0.00518799	-0.0614929	-0.0666809
3.83	-0.0012207	-0.0779724	-0.0791931
3.832	0.00244141	-0.0909424	-0.088501
3.834	0.00427246	-0.096283	-0.0920105
3.836	0.00549316	-0.0933838	-0.0878906
3.838	0.010376	-0.0837708	-0.0733948
3.84	0.0195313	-0.0695801	-0.0500488
3.842	0.0323486	-0.0526428	-0.0202942
3.844	0.0518799	-0.0340271	0.0178528
3.846	0.0787354	-0.0111389	0.0675964
3.848	0.108948	0.0198364	0.128784
3.85	0.141296	0.0611877	0.202484
3.852	0.17334	0.114594	0.287933
3.854	0.199585	0.179901	0.379486
3.856	0.217896	0.254822	0.472717
3.858	0.227051	0.336456	0.563507
3.86	0.221558	0.417175	0.638733
3.862	0.197449	0.482483	0.679932
3.864	0.158386	0.520172	0.678558
3.866	0.108948	0.527649	0.636597
3.868	0.0518799	0.510101	0.561981
3.87	-0.00946045	0.474091	0.46463
3.872	-0.071106	0.423584	0.352478
3.874	-0.13031	0.35965	0.22934
3.876	-0.179749	0.281219	0.101471
3.878	-0.212402	0.189209	-0.0231934
3.88	-0.228577	0.0898743	-0.138702
3.882	-0.230713	-0.00488281	-0.235596
3.884	-0.219421	-0.0854492	-0.304871
3.886	-0.197144	-0.145874	-0.343018
3.888	-0.169067	-0.185852	-0.354919
3.89	-0.136108	-0.209503	-0.345612
3.892	-0.100403	-0.221558	-0.32196
3.894	-0.0665283	-0.224152	-0.29068
3.896	-0.0375366	-0.219574	-0.257111
3.898	-0.0128174	-0.209045	-0.221863
3.9	0.00488281	-0.191956	-0.187073
3.902	0.0140381	-0.167999	-0.153961
3.904	0.0180054	-0.140076	-0.12207
3.906	0.0186157	-0.112	-0.0933838
3.908	0.0149536	-0.0872803	-0.0723267
3.91	0.00946045	-0.0695801	-0.0601196
3.912	0.00488281	-0.0611877	-0.0563049
3.914	0.000915527	-0.0613403	-0.0604248
3.916	-0.00244141	-0.0680542	-0.0704956
3.918	-0.00335693	-0.0782776	-0.0816345
3.92	-0.00335693	-0.0880432	-0.0914001
3.922	-0.00366211	-0.0942993	-0.0979614
3.924	-0.00335693	-0.0959778	-0.0993347
3.926	-0.00244141	-0.0927734	-0.0952148
3.928	-0.00335693	-0.0860596	-0.0894165
3.93	-0.00335693	-0.0790405	-0.0823975
3.932	-0.00183105	-0.0743103	-0.0761414
3.934	-0.000610352	-0.0723267	-0.072937
3.936	-0.000610352	-0.0726318	-0.0732422
3.938	0.000305176	-0.0744629	-0.0741577
3.94	0.000915527	-0.0759888	-0.0750732
3.942	0.000305176	-0.0761414	-0.0758362
3.944	0.000610352	-0.0747681	-0.0741577
3.946	0.00152588	-0.0718689	-0.070343
3.948	0.00152588	-0.0666809	-0.065155
3.95	0.00152588	-0.0608826	-0.0593567
3.952	0.00305176	-0.0564575	-0.0534058
3.954	0.00366211	-0.0549316	-0.0512695
3.956	0.00335693	-0.0563049	-0.052948
3.958	0.00488281	-0.0590515	-0.0541687
3.96	0.00640869	-0.0616455	-0.0552368
3.962	0.00640869	-0.0627136	-0.0563049
3.964	0.00671387	-0.0628662	-0.0561523
3.966	0.00762939	-0.0617981	-0.0541687
3.968	0.00640869	-0.0595093	-0.0531006
3.97	0.00518799	-0.0569153	-0.0517273
3.972	0.00549316	-0.0546265	-0.0491333
3.974	0.00640869	-0.0526428	-0.0462341
3.976	0.00701904	-0.0509644	-0.0439453
3.978	0.00915527	-0.0500488	-0.0408936
3.98	0.0112915	-0.0494385	-0.038147
3.982	0.0119019	-0.0483704	-0.0364685
3.984	0.0125122	-0.0476074	-0.0350952
3.986	0.0137329	-0.0466919	-0.032959
3.988	0.0134277	-0.0456238	-0.032196
3.99	0.0131226	-0.0447083	-0.0315857
3.992	0.0146484	-0.0440979	-0.0294495
3.994	0.0158691	-0.0427246	-0.0268555
3.996	0.0164795	-0.0405884	-0.0241089
3.998	0.0183105	-0.0392151	-0.0209045
4	0.0195313	-0.0392151	-0.0196838
4.002	0.0183105	-0.0402832	-0.0219727
4.004	0.0180054	-0.0419617	-0.0239563
4.006	0.0189209	-0.0439453	-0.0250244
4.008	0.0195313	-0.0456238	-0.0260925
4.01	0.0204468	-0.0471497	-0.0267029
4.012	0.0222778	-0.0485229	-0.0262451
4.014	0.022583	-0.0489807	-0.0263977
4.016	0.0222778	-0.0486755	-0.0263977
4.018	0.0238037	-0.0480652	-0.0242615
4.02	0.0262451	-0.0471497	-0.0209045
4.022	0.0274658	-0.0453186	-0.0178528
4.024	0.0292969	-0.043335	-0.0140381
4.026	0.0320435	-0.0421143	-0.0100708
4.028	0.0332642	-0.0411987	-0.00793457
4.03	0.03479	-0.0411987	-0.00640869
4.032	0.0369263	-0.0419617	-0.0050354
4.034	0.0384521	-0.0428772	-0.00442505
4.036	0.0393677	-0.0439453	-0.00457764
4.038	0.0418091	-0.0453186	-0.00350952
4.04	0.0448608	-0.0462341	-0.00137329
4.042	0.0463867	-0.0460815	0.000305176
4.044	0.0494385	-0.045929	0.00350952
4.046	0.0534058	-0.045929	0.00747681
4.048	0.0564575	-0.0456238	0.0108337
4.05	0.0592041	-0.045929	0.0132751
4.052	0.0634766	-0.0473022	0.0161743
4.054	0.0671387	-0.0494385	0.0177002
4.056	0.0704956	-0.0517273	0.0187683
4.058	0.0747681	-0.0541687	0.0205994
4.06	0.0784302	-0.0558472	0.022583
4.062	0.0805664	-0.0566101	0.0239563
4.064	0.0836182	-0.057373	0.0262451
4.066	0.0866699	-0.0578308	0.0288391
4.068	0.0881958	-0.0578308	0.030365
4.07	0.0900269	-0.0579834	0.0320435
4.072	0.093689	-0.0582886	0.0354004
4.074	0.0964355	-0.058136	0.0382996
4.076	0.0979614	-0.0572205	0.040741
4.078	0.101013	-0.0559998	0.0450134
4.08	0.10376	-0.0546265	0.0491333
4.082	0.105286	-0.0527954	0.0524902
4.084	0.107117	-0.0509644	0.0561523
4.086	0.109558	-0.0491333	0.0604248
4.088	0.109558	-0.0466919	0.0628662
4.09	0.108337	-0.043335	0.0650024
4.092	0.107727	-0.039978	0.067749
4.094	0.105896	-0.0361633	0.0697327
4.096	0.102539	-0.0320435	0.0704956
4.098	0.0994873	-0.0280762	0.0714111
4.1	0.0961304	-0.0236511	0.0724792
4.102	0.0909424	-0.0183105	0.0726318
4.104	0.0860596	-0.0128174	0.0732422
4.106	0.0817871	-0.00701904	0.0747681
4.108	0.0753784	-0.000305176	0.0750732
4.11	0.0674438	0.00717163	0.0746155
4.112	0.0585938	0.0149536	0.0735474
4.114	0.0482178	0.0236511	0.0718689
4.116	0.0366211	0.0335693	0.0701904
4.118	0.0259399	0.0437927	0.0697327
4.12	0.015564	0.052948	0.068512
4.122	0.00396729	0.0592041	0.0631714
4.124	-0.00579834	0.0616455	0.0558472
4.126	-0.0134277	0.0613403	0.0479126
4.128	-0.0216675	0.0598145	0.038147
4.13	-0.0292969	0.0576782	0.0283813
4.132	-0.0350952	0.0546265	0.0195313
4.134	-0.0405884	0.0517273	0.0111389
4.136	-0.0466919	0.0489807	0.00228882
4.138	-0.0515747	0.0460815	-0.00549316
4.14	-0.0558472	0.0436401	-0.012207
4.142	-0.0616455	0.0424194	-0.0192261
4.144	-0.0665283	0.0418091	-0.0247192
4.146	-0.0692749	0.0413513	-0.0279236
4.148	-0.0723267	0.0413513	-0.0309753
4.15	-0.0735474	0.040741	-0.0328064
4.152	-0.0726318	0.0392151	-0.0334167
4.154	-0.0723267	0.0372314	-0.0350952
4.156	-0.0732422	0.0352478	-0.0379944
4.158	-0.0726318	0.0325012	-0.0401306
4.16	-0.0717163	0.0297546	-0.0419617
4.162	-0.0720215	0.0279236	-0.0440979
4.164	-0.0723267	0.0267029	-0.0456238
4.166	-0.0720215	0.0260925	-0.045929
4.168	-0.0723267	0.0257874	-0.0465393
4.17	-0.0723267	0.0253296	-0.0469971
4.172	-0.0701904	0.0241089	-0.0460815
4.174	-0.0680542	0.0224304	-0.0456238
4.176	-0.0662231	0.0204468	-0.0457764
4.178	-0.0628662	0.0183105	-0.0445557
4.18	-0.0601196	0.0166321	-0.0434875
4.182	-0.0592041	0.0163269	-0.0428772
4.184	-0.0582886	0.0166321	-0.0416565
4.186	-0.0561523	0.0172424	-0.0389099
4.188	-0.0552368	0.0187683	-0.0364685
4.19	-0.0546265	0.0202942	-0.0343323
4.192	-0.0524902	0.0212097	-0.0312805
4.194	-0.0506592	0.0216675	-0.0289917
4.196	-0.0494385	0.0221252	-0.0273132
4.198	-0.0469971	0.0221252	-0.0248718
4.2	-0.0448608	0.0221252	-0.0227356
4.202	-0.0439453	0.0222778	-0.0216675
4.204	-0.0427246	0.0222778	-0.0204468
4.206	-0.0408936	0.0222778	-0.0186157
4.208	-0.0405884	0.0230408	-0.0175476
4.21	-0.0402832	0.0238037	-0.0164795
4.212	-0.0384521	0.0242615	-0.0141907
4.214	-0.0372314	0.0248718	-0.0123596
4.216	-0.0375366	0.0254822	-0.0120544
4.218	-0.0366211	0.0257874	-0.0108337
4.22	-0.0360107	0.0257874	-0.0102234
4.222	-0.0369263	0.0260925	-0.0108337
4.224	-0.0372314	0.0260925	-0.0111389
4.226	-0.0363159	0.0259399	-0.010376
4.228	-0.0360107	0.0263977	-0.00961304
4.23	-0.0354004	0.0270081	-0.00839233
4.232	-0.0338745	0.0276184	-0.0062561
4.234	-0.0332642	0.0288391	-0.00442505
4.236	-0.0341797	0.0305176	-0.00366211
4.238	-0.0341797	0.0315857	-0.00259399
4.24	-0.0335693	0.0320435	-0.00152588
4.242	-0.0338745	0.032196	-0.00167847
4.244	-0.0323486	0.0315857	-0.000762939
4.246	-0.0302124	0.0306702	0.000457764
4.248	-0.0296021	0.0305176	0.000915527
4.25	-0.0292969	0.0305176	0.0012207
4.252	-0.0271606	0.0302124	0.00305176
4.254	-0.0259399	0.0305176	0.00457764
4.256	-0.0256348	0.0312805	0.00564575
4.258	-0.0238037	0.0315857	0.00778198
4.26	-0.0216675	0.0315857	0.00991821
4.262	-0.020752	0.0317383	0.0109863
4.264	-0.0192261	0.0312805	0.0120544
4.266	-0.0170898	0.0308228	0.0137329
4.268	-0.0170898	0.0305176	0.0134277
4.27	-0.017395	0.0302124	0.0128174
4.272	-0.0164795	0.0296021	0.0131226
4.274	-0.0161743	0.0291443	0.01297
4.276	-0.0167847	0.0296021	0.0128174
4.278	-0.0161743	0.0309753	0.014801
4.28	-0.015564	0.0338745	0.0183105
4.282	-0.0161743	0.0376892	0.0215149
4.284	-0.0164795	0.039978	0.0234985
4.286	-0.015564	0.0396729	0.0241089
4.288	-0.0152588	0.0382996	0.0230408
4.29	-0.0146484	0.0366211	0.0219727
4.292	-0.0128174	0.03479	0.0219727
4.294	-0.0115967	0.0335693	0.0219727
4.296	-0.0115967	0.0331116	0.0215149
4.298	-0.0109863	0.0328064	0.0218201
4.3	-0.010376	0.0326538	0.0222778
4.302	-0.0109863	0.032959	0.0219727
4.304	-0.0109863	0.0332642	0.0222778
4.306	-0.010376	0.0343323	0.0239563
4.308	-0.0109863	0.0370789	0.0260925
4.31	-0.0119019	0.040741	0.0288391
4.312	-0.0106812	0.043335	0.0326538
4.314	-0.00976563	0.0436401	0.0338745
4.316	-0.00915527	0.0415039	0.0323486
4.318	-0.00732422	0.0375366	0.0302124
4.32	-0.00610352	0.0335693	0.0274658
4.322	-0.00671387	0.0311279	0.0244141
4.324	-0.00671387	0.0291443	0.0224304
4.326	-0.00640869	0.027771	0.0213623
4.328	-0.00762939	0.0274658	0.0198364
4.33	-0.00976563	0.0279236	0.018158
4.332	-0.010376	0.0285339	0.018158
4.334	-0.0115967	0.0294495	0.0178528
4.336	-0.0125122	0.0305176	0.0180054
4.338	-0.0115967	0.0309753	0.0193787
4.34	-0.0100708	0.0311279	0.0210571
4.342	-0.0100708	0.0311279	0.0210571
4.344	-0.0088501	0.0306702	0.0218201
4.346	-0.00701904	0.0296021	0.022583
4.348	-0.00671387	0.0289917	0.0222778
4.35	-0.00701904	0.0283813	0.0213623
4.352	-0.00671387	0.0274658	0.020752
4.354	-0.00762939	0.0270081	0.0193787
4.356	-0.00946045	0.0270081	0.0175476
4.358	-0.0100708	0.0270081	0.0169373
4.36	-0.0100708	0.0268555	0.0167847
4.362	-0.0109863	0.0268555	0.0158691
4.364	-0.0109863	0.0262451	0.0152588
4.366	-0.0100708	0.0256348	0.015564
4.368	-0.010376	0.0256348	0.0152588
4.37	-0.0112915	0.0260925	0.014801
4.372	-0.010376	0.0260925	0.0157166
4.374	-0.00976563	0.0260925	0.0163269
4.376	-0.00946045	0.0263977	0.0169373
4.378	-0.00793457	0.0265503	0.0186157
4.38	-0.00671387	0.0271606	0.0204468
4.382	-0.00762939	0.0280762	0.0204468
4.384	-0.00823975	0.0282288	0.019989
4.386	-0.00762939	0.0274658	0.0198364
4.388	-0.00793457	0.0267029	0.0187683
4.39	-0.00823975	0.0257874	0.0175476
4.392	-0.00701904	0.0245667	0.0175476
4.394	-0.00671387	0.0234985	0.0167847
4.396	-0.00762939	0.0230408	0.0154114
4.398	-0.00823975	0.0228882	0.0146484
4.4	-0.00854492	0.0233459	0.014801
4.402	-0.0100708	0.0241089	0.0140381
4.404	-0.010376	0.0247192	0.0143433
4.406	-0.00976563	0.025177	0.0154114
4.408	-0.0106812	0.0259399	0.0152588
4.41	-0.0115967	0.0265503	0.0149536
4.412	-0.0109863	0.0260925	0.0151062
4.414	-0.0109863	0.0256348	0.0146484
4.416	-0.0119019	0.0254822	0.0135803
4.418	-0.0109863	0.0247192	0.0137329
4.42	-0.00946045	0.0236511	0.0141907
4.422	-0.00854492	0.0234985	0.0149536
4.424	-0.00762939	0.0241089	0.0164795
4.426	-0.00640869	0.0254822	0.0190735
4.428	-0.00671387	0.0262451	0.0195313
4.43	-0.00762939	0.025177	0.0175476
4.432	-0.00732422	0.0227356	0.0154114
4.434	-0.00762939	0.0204468	0.0128174
4.436	-0.00946045	0.0189209	0.00946045
4.438	-0.0100708	0.0178528	0.00778198
4.44	-0.0100708	0.0166321	0.00656128
4.442	-0.0109863	0.0158691	0.00488281
4.444	-0.0109863	0.0152588	0.00427246
4.446	-0.00976563	0.014801	0.0050354
4.448	-0.0100708	0.0154114	0.00534058
4.45	-0.0100708	0.0167847	0.00671387
4.452	-0.00854492	0.018158	0.00961304
4.454	-0.00762939	0.0195313	0.0119019
4.456	-0.00823975	0.0209045	0.0126648
4.458	-0.00732422	0.0212097	0.0138855
4.46	-0.00701904	0.0212097	0.0141907
4.462	-0.00793457	0.0215149	0.0135803
4.464	-0.00823975	0.0215149	0.0132751
4.466	-0.00793457	0.0210571	0.0131226
4.468	-0.0088501	0.0210571	0.012207
4.47	-0.00976563	0.0216675	0.0119019
4.472	-0.0088501	0.0218201	0.01297
4.474	-0.00732422	0.0218201	0.0144958
4.476	-0.00701904	0.0222778	0.0152588
4.478	-0.00610352	0.0222778	0.0161743
4.48	-0.00579834	0.0221252	0.0163269
4.482	-0.00762939	0.022583	0.0149536
4.484	-0.0088501	0.022583	0.0137329
4.486	-0.00854492	0.0221252	0.0135803
4.488	-0.00915527	0.0228882	0.0137329
4.49	-0.0100708	0.0250244	0.0149536
4.492	-0.00946045	0.0276184	0.018158
4.494	-0.0088501	0.0288391	0.019989
4.496	-0.00823975	0.0280762	0.0198364
4.498	-0.00640869	0.0253296	0.0189209
4.5	-0.00427246	0.0224304	0.018158
4.502	-0.00427246	0.020752	0.0164795
4.504	-0.00427246	0.0193787	0.0151062
4.506	-0.00366211	0.0178528	0.0141907
4.508	-0.00457764	0.0167847	0.012207
4.51	-0.00579834	0.0157166	0.00991821
4.512	-0.00549316	0.0143433	0.0088501
4.514	-0.00549316	0.0138855	0.00839233
4.516	-0.00701904	0.0144958	0.00747681
4.518	-0.00793457	0.0154114	0.00747681
4.52	-0.0088501	0.0167847	0.00793457
4.522	-0.0100708	0.018158	0.00808716
4.524	-0.00976563	0.0189209	0.00915527
4.526	-0.00823975	0.0190735	0.0108337
4.528	-0.00823975	0.0196838	0.0114441
4.53	-0.00854492	0.0201416	0.0115967
4.532	-0.00671387	0.019989	0.0132751
4.534	-0.00518799	0.0196838	0.0144958
4.536	-0.00427246	0.0196838	0.0154114
4.538	-0.00274658	0.0195313	0.0167847
4.54	-0.000915527	0.0196838	0.0187683
4.542	0	0.0204468	0.0204468
4.544	0.00183105	0.0213623	0.0231934
4.546	0.00457764	0.0228882	0.0274658
4.548	0.00518799	0.0257874	0.0309753
4.55	0.00457764	0.0300598	0.0346375
4.552	0.00457764	0.03479	0.0393677
4.554	0.00396729	0.0398254	0.0437927
4.556	0.00213623	0.045166	0.0473022
4.558	0.00183105	0.0495911	0.0514221
4.56	0.00244141	0.0526428	0.0550842
4.562	0.00305176	0.0541687	0.0572205
4.564	0.00549316	0.0535583	0.0590515
4.566	0.0100708	0.0508118	0.0608826
4.568	0.0143433	0.0479126	0.0622559
4.57	0.0189209	0.0453186	0.0642395
4.572	0.0250244	0.0437927	0.0688171
4.574	0.0289917	0.0436401	0.0726318
4.576	0.0305176	0.0450134	0.075531
4.578	0.0317383	0.0465393	0.0782776
4.58	0.0314331	0.04776	0.0791931
4.582	0.0286865	0.0485229	0.0772095
4.584	0.0256348	0.0479126	0.0735474
4.586	0.0231934	0.045166	0.0683594
4.588	0.0201416	0.0408936	0.0610352
4.59	0.0170898	0.0352478	0.0523376
4.592	0.0158691	0.0288391	0.0447083
4.594	0.0143433	0.0228882	0.0372314
4.596	0.0119019	0.018158	0.0300598
4.598	0.010376	0.0140381	0.0244141
4.6	0.0088501	0.0112915	0.0201416
4.602	0.00610352	0.00991821	0.0160217
4.604	0.00427246	0.00839233	0.0126648
4.606	0.00366211	0.00595093	0.00961304
4.608	0.0012207	0.00305176	0.00427246
4.61	-0.00274658	0.000305176	-0.00244141
4.612	-0.00610352	-0.00289917	-0.00900269
4.614	-0.0100708	-0.00610352	-0.0161743
4.616	-0.0149536	-0.00900269	-0.0239563
4.618	-0.0183105	-0.0120544	-0.030365
4.62	-0.0201416	-0.014801	-0.0349426
4.622	-0.0219727	-0.0166321	-0.0386047
4.624	-0.0231934	-0.017395	-0.0405884
4.626	-0.0234985	-0.0170898	-0.0405884
4.628	-0.0247192	-0.0157166	-0.0404358
4.63	-0.0259399	-0.0138855	-0.0398254
4.632	-0.0244141	-0.0117493	-0.0361633
4.634	-0.0222778	-0.00976563	-0.0320435
4.636	-0.0201416	-0.00839233	-0.0285339
4.638	-0.0170898	-0.00946045	-0.0265503
4.64	-0.0146484	-0.0119019	-0.0265503
4.642	-0.0143433	-0.0135803	-0.0279236
4.644	-0.0146484	-0.0144958	-0.0291443
4.646	-0.0143433	-0.0149536	-0.0292969
4.648	-0.0152588	-0.0141907	-0.0294495
4.65	-0.0167847	-0.01297	-0.0297546
4.652	-0.0170898	-0.0114441	-0.0285339
4.654	-0.0180054	-0.00976563	-0.027771
4.656	-0.0195313	-0.00793457	-0.0274658
4.658	-0.0195313	-0.00640869	-0.0259399
4.66	-0.0183105	-0.00518799	-0.0234985
4.662	-0.0180054	-0.00396729	-0.0219727
4.664	-0.0167847	-0.00305176	-0.0198364
4.666	-0.0149536	-0.00350952	-0.0184631
4.668	-0.0137329	-0.00595093	-0.0196838
4.67	-0.0119019	-0.0123596	-0.0242615
4.672	-0.00732422	-0.0242615	-0.0315857
4.674	-0.00244141	-0.0395203	-0.0419617
4.676	0.000305176	-0.0531006	-0.0527954
4.678	0.00213623	-0.0613403	-0.0592041
4.68	0.00366211	-0.0624084	-0.0587463
4.682	0.00549316	-0.0564575	-0.0509644
4.684	0.0112915	-0.0460815	-0.03479
4.686	0.0234985	-0.0334167	-0.00991821
4.688	0.0408936	-0.0193787	0.0215149
4.69	0.0653076	-0.00289917	0.0624084
4.692	0.0967407	0.0193787	0.116119
4.694	0.131531	0.0511169	0.182648
4.696	0.165405	0.0952148	0.26062
4.698	0.197754	0.152588	0.350342
4.7	0.223694	0.222321	0.446014
4.702	0.239258	0.301514	0.540771
4.704	0.24292	0.384979	0.627899
4.706	0.231323	0.46051	0.691833
4.708	0.201111	0.514984	0.716095
4.71	0.156555	0.540009	0.696564
4.712	0.104675	0.534973	0.639648
4.714	0.0476074	0.504608	0.552216
4.716	-0.0137329	0.454102	0.440369
4.718	-0.0750732	0.386353	0.311279
4.72	-0.131836	0.303497	0.171661
4.722	-0.179749	0.209198	0.0294495
4.724	-0.211487	0.109863	-0.101624
4.726	-0.22583	0.0143433	-0.211487
4.728	-0.226135	-0.0672913	-0.293427
4.73	-0.214233	-0.128174	-0.342407
4.732	-0.19165	-0.166931	-0.358582
4.734	-0.162354	-0.186615	-0.348969
4.736	-0.130005	-0.191803	-0.321808
4.738	-0.0949097	-0.187836	-0.282745
4.74	-0.0610352	-0.178833	-0.239868
4.742	-0.0320435	-0.166779	-0.198822
4.744	-0.00823975	-0.152283	-0.160522
4.746	0.00854492	-0.135193	-0.126648
4.748	0.0158691	-0.114746	-0.098877
4.75	0.0161743	-0.0927734	-0.0765991
4.752	0.0131226	-0.0723267	-0.0592041
4.754	0.00732422	-0.0553894	-0.0480652
4.756	0.000305176	-0.0439453	-0.0436401
4.758	-0.00427246	-0.0393677	-0.0436401
4.76	-0.00732422	-0.0410461	-0.0483704
4.762	-0.00915527	-0.0465393	-0.0556946
4.764	-0.00946045	-0.0535583	-0.0630188
4.766	-0.00732422	-0.059967	-0.0672913
4.768	-0.00610352	-0.0628662	-0.0689697
4.77	-0.00549316	-0.062561	-0.0680542
4.772	-0.00305176	-0.0598145	-0.0628662
4.774	-0.0012207	-0.0559998	-0.0572205
4.776	-0.000305176	-0.0517273	-0.0520325
4.778	0.0012207	-0.0488281	-0.0476074
4.78	0.00213623	-0.0476074	-0.0454712
4.782	0.0012207	-0.0476074	-0.0463867
4.784	0.000610352	-0.0485229	-0.0479126
4.786	0.0012207	-0.0495911	-0.0483704
4.788	0.000610352	-0.0488281	-0.0482178
4.79	-0.000610352	-0.0463867	-0.0469971
4.792	-0.000305176	-0.0428772	-0.0431824
4.794	0	-0.0389099	-0.0389099
4.796	-0.000305176	-0.0350952	-0.0354004
4.798	0.000610352	-0.0323486	-0.0317383
4.8	0.00213623	-0.0311279	-0.0289917
4.802	0.00274658	-0.0309753	-0.0282288
4.804	0.00457764	-0.032196	-0.0276184
4.806	0.00732422	-0.0338745	-0.0265503
4.808	0.00854492	-0.0338745	-0.0253296
4.81	0.00823975	-0.0315857	-0.0233459
4.812	0.00854492	-0.0279236	-0.0193787
4.814	0.00793457	-0.0242615	-0.0163269
4.816	0.00579834	-0.0219727	-0.0161743
4.818	0.00518799	-0.0216675	-0.0164795
4.82	0.00457764	-0.0218201	-0.0172424
4.822	0.00335693	-0.0218201	-0.0184631
4.824	0.00335693	-0.0221252	-0.0187683
4.826	0.00488281	-0.0227356	-0.0178528
4.828	0.00579834	-0.0228882	-0.0170898
4.83	0.00671387	-0.0227356	-0.0160217
4.832	0.0088501	-0.022583	-0.0137329
4.834	0.0109863	-0.0218201	-0.0108337
4.836	0.0115967	-0.0202942	-0.00869751
4.838	0.0134277	-0.0189209	-0.00549316
4.84	0.0152588	-0.0177002	-0.00244141
4.842	0.0149536	-0.0163269	-0.00137329
4.844	0.0152588	-0.0158691	-0.000610352
4.846	0.0167847	-0.0164795	0.000305176
4.848	0.0170898	-0.0170898	0
4.85	0.017395	-0.0178528	-0.000457764
4.852	0.0192261	-0.0189209	0.000305176
4.854	0.020752	-0.0195313	0.0012207
4.856	0.0210571	-0.0193787	0.00167847
4.858	0.022583	-0.0190735	0.00350952
4.86	0.0241089	-0.0184631	0.00564575
4.862	0.0244141	-0.017395	0.00701904
4.864	0.0256348	-0.0167847	0.0088501
4.866	0.0283813	-0.0169373	0.0114441
4.868	0.0296021	-0.0170898	0.0125122
4.87	0.0299072	-0.0170898	0.0128174
4.872	0.0314331	-0.017395	0.0140381
4.874	0.0326538	-0.017395	0.0152588
4.876	0.0332642	-0.0170898	0.0161743
4.878	0.0357056	-0.0172424	0.0184631
4.88	0.0384521	-0.0175476	0.0209045
4.882	0.0396729	-0.0172424	0.0224304
4.884	0.0415039	-0.017395	0.0241089
4.886	0.0448608	-0.018158	0.0267029
4.888	0.0473022	-0.0192261	0.0280762
4.89	0.0497437	-0.0205994	0.0291443
4.892	0.0531006	-0.022583	0.0305176
4.894	0.0561523	-0.0244141	0.0317383
4.896	0.0585938	-0.0259399	0.0326538
4.898	0.0619507	-0.0276184	0.0343323
4.9	0.065918	-0.0291443	0.0367737
4.902	0.0686646	-0.030365	0.0382996
4.904	0.0726318	-0.0311279	0.0415039
4.906	0.0772095	-0.0311279	0.0460815
4.908	0.0811768	-0.0300598	0.0511169
4.91	0.0842285	-0.0291443	0.0550842
4.912	0.088501	-0.0302124	0.0582886
4.914	0.0918579	-0.0326538	0.0592041
4.916	0.0946045	-0.0352478	0.0593567
4.918	0.0982666	-0.0376892	0.0605774
4.92	0.101929	-0.0396729	0.0622559
4.922	0.103455	-0.0402832	0.0631714
4.924	0.104675	-0.0401306	0.0645447
4.926	0.106506	-0.0396729	0.0668335
4.928	0.106812	-0.038147	0.0686646
4.93	0.106506	-0.0360107	0.0704956
4.932	0.106812	-0.0332642	0.0735474
4.934	0.106812	-0.0297546	0.0770569
4.936	0.105591	-0.0260925	0.0794983
4.938	0.105286	-0.0228882	0.0823975
4.94	0.104675	-0.0196838	0.0849915
4.942	0.101624	-0.0161743	0.0854492
4.944	0.0985718	-0.0128174	0.0857544
4.946	0.0958252	-0.00946045	0.0863647
4.948	0.0912476	-0.0050354	0.0862122
4.95	0.0857544	0.000457764	0.0862122
4.952	0.0808716	0.00656128	0.0874329
4.954	0.0747681	0.0135803	0.0883484
4.956	0.0668335	0.0215149	0.0883484
4.958	0.0588989	0.0296021	0.088501
4.96	0.0506592	0.037384	0.0880432
4.962	0.0396729	0.045166	0.0848389
4.964	0.0286865	0.0518799	0.0805664
4.966	0.0189209	0.0567627	0.0756836
4.968	0.00854492	0.06073	0.0692749
4.97	-0.00183105	0.063324	0.0614929
4.972	-0.0100708	0.0643921	0.0543213
4.974	-0.0186157	0.0645447	0.045929
4.976	-0.0274658	0.0645447	0.0370789
4.978	-0.0350952	0.0637817	0.0286865
4.98	-0.0418091	0.0622559	0.0204468
4.982	-0.0488281	0.0604248	0.0115967
4.984	-0.0540161	0.0576782	0.00366211
4.986	-0.057373	0.0541687	-0.00320435
4.988	-0.06073	0.0508118	-0.00991821
4.99	-0.0637817	0.0476074	-0.0161743
4.992	-0.0650024	0.0440979	-0.0209045
4.994	-0.0662231	0.040741	-0.0254822
4.996	-0.0683594	0.0376892	-0.0306702
4.998	-0.0692749	0.03479	-0.0344849
5	-0.0698853	0.0320435	-0.0378418
5.002	-0.0714111	0.0296021	-0.0418091
5.004	-0.0717163	0.0270081	-0.0447083
5.006	-0.0701904	0.0241089	-0.0460815
5.008	-0.0698853	0.0216675	-0.0482178
5.01	-0.0692749	0.0198364	-0.0494385
5.012	-0.0671387	0.0180054	-0.0491333
5.014	-0.0656128	0.0169373	-0.0486755
5.016	-0.0653076	0.0167847	-0.0485229
5.018	-0.0640869	0.0166321	-0.0474548
5.02	-0.0622559	0.0167847	-0.0454712
5.022	-0.0613403	0.0172424	-0.0440979
5.024	-0.0601196	0.0170898	-0.0430298
5.026	-0.057373	0.0167847	-0.0405884
5.028	-0.0561523	0.0167847	-0.0393677
5.03	-0.0552368	0.0169373	-0.0382996
5.032	-0.0534058	0.0169373	-0.0364685
5.034	-0.0518799	0.0170898	-0.03479
5.036	-0.0518799	0.017395	-0.0344849
5.038	-0.0506592	0.0172424	-0.0334167
5.04	-0.0488281	0.0167847	-0.0320435
5.042	-0.0479126	0.0163269	-0.0315857
5.044	-0.0473022	0.0163269	-0.0309753
5.046	-0.0463867	0.0167847	-0.0296021
5.048	-0.0466919	0.0175476	-0.0291443
5.05	-0.0466919	0.0178528	-0.0288391
5.052	-0.0445557	0.0169373	-0.0276184
5.054	-0.0424194	0.0158691	-0.0265503
5.056	-0.0415039	0.0151062	-0.0263977
5.058	-0.0393677	0.0141907	-0.025177
5.06	-0.0369263	0.0134277	-0.0234985
5.062	-0.0360107	0.0131226	-0.0228882
5.064	-0.03479	0.01297	-0.0218201
5.066	-0.0332642	0.0126648	-0.0205994
5.068	-0.032959	0.01297	-0.019989
5.07	-0.0332642	0.0135803	-0.0196838
5.072	-0.0320435	0.0140381	-0.0180054
5.074	-0.0317383	0.014801	-0.0169373
5.076	-0.0323486	0.0158691	-0.0164795
5.078	-0.0317383	0.0163269	-0.0154114
5.08	-0.0302124	0.0160217	-0.0141907
5.082	-0.0296021	0.0152588	-0.0143433
5.084	-0.0280762	0.0140381	-0.0140381
5.086	-0.0259399	0.0126648	-0.0132751
5.088	-0.0250244	0.0119019	-0.0131226
5.09	-0.0250244	0.0115967	-0.0134277
5.092	-0.0238037	0.0108337	-0.01297
5.094	-0.0228882	0.010376	-0.0125122
5.096	-0.0231934	0.010376	-0.0128174
5.098	-0.022583	0.010376	-0.012207
5.1	-0.0213623	0.0106812	-0.0106812
5.102	-0.0213623	0.0112915	-0.0100708
5.104	-0.020752	0.0117493	-0.00900269
5.106	-0.0192261	0.0119019	-0.00732422
5.108	-0.0189209	0.0126648	-0.0062561
5.11	-0.0186157	0.0132751	-0.00534058
5.112	-0.0167847	0.0134277	-0.00335693
5.114	-0.0152588	0.0137329	-0.00152588
5.116	-0.0149536	0.0140381	-0.000915527
5.118	-0.0140381	0.0140381	0
5.12	-0.0134277	0.0141907	0.000762939
5.122	-0.0149536	0.014801	-0.000152588
5.124	-0.0158691	0.014801	-0.00106812
5.126	-0.0149536	0.0140381	-0.000915527
5.128	-0.0149536	0.0131226	-0.00183105
5.13	-0.0149536	0.0120544	-0.00289917
5.132	-0.0134277	0.010376	-0.00305176
5.134	-0.012207	0.00854492	-0.00366211
5.136	-0.012207	0.00717163	-0.0050354
5.138	-0.0109863	0.00564575	-0.00534058
5.14	-0.00976563	0.00442505	-0.00534058
5.142	-0.010376	0.00427246	-0.00610352
5.144	-0.0106812	0.00457764	-0.00610352
5.146	-0.010376	0.00457764	-0.00579834
5.148	-0.0109863	0.00518799	-0.00579834
5.15	-0.0119019	0.00610352	-0.00579834
5.152	-0.0115967	0.00671387	-0.00488281
5.154	-0.0115967	0.00701904	-0.00457764
5.156	-0.012207	0.00732422	-0.00488281
5.158	-0.0112915	0.00671387	-0.00457764
5.16	-0.00976563	0.00549316	-0.00427246
5.162	-0.00946045	0.00457764	-0.00488281
5.164	-0.00915527	0.00366211	-0.00549316
5.166	-0.00823975	0.00213623	-0.00610352
5.168	-0.0088501	0.00106812	-0.00778198
5.17	-0.00976563	0.000305176	-0.00946045
5.172	-0.00915527	-0.000457764	-0.00961304
5.174	-0.0088501	-0.000915527	-0.00976563
5.176	-0.0088501	-0.00106812	-0.00991821
5.178	-0.00823975	-0.00106812	-0.00930786
5.18	-0.00732422	-0.000915527	-0.00823975
5.182	-0.00854492	-0.000152588	-0.00869751
5.184	-0.00946045	0.000610352	-0.0088501
5.186	-0.0088501	0.000610352	-0.00823975
5.188	-0.00946045	0.000152588	-0.00930786
5.19	-0.010376	-0.000610352	-0.0109863
5.192	-0.010376	-0.00213623	-0.0125122
5.194	-0.0106812	-0.00350952	-0.0141907
5.196	-0.0125122	-0.00396729	-0.0164795
5.198	-0.0137329	-0.00396729	-0.0177002
5.2	-0.0143433	-0.00396729	-0.0183105
5.202	-0.0152588	-0.00411987	-0.0193787
5.204	-0.0146484	-0.00473022	-0.0193787
5.206	-0.012207	-0.00579834	-0.0180054
5.208	-0.0109863	-0.0062561	-0.0172424
5.21	-0.0106812	-0.00640869	-0.0170898
5.212	-0.0100708	-0.00656128	-0.0166321
5.214	-0.0100708	-0.00656128	-0.0166321
5.216	-0.0109863	-0.00640869	-0.017395
5.218	-0.0106812	-0.00671387	-0.017395
5.22	-0.00976563	-0.00717163	-0.0169373
5.222	-0.0100708	-0.00732422	-0.017395
5.224	-0.00976563	-0.00762939	-0.017395
5.226	-0.00854492	-0.00808716	-0.0166321
5.228	-0.00946045	-0.00778198	-0.0172424
5.23	-0.0109863	-0.00717163	-0.018158
5.232	-0.0109863	-0.00686646	-0.0178528
5.234	-0.010376	-0.00686646	-0.0172424
5.236	-0.00976563	-0.00717163	-0.0169373
5.238	-0.00793457	-0.00823975	-0.0161743
5.24	-0.00610352	-0.00915527	-0.0152588
5.242	-0.00671387	-0.00946045	-0.0161743
5.244	-0.00793457	-0.00930786	-0.0172424
5.246	-0.00793457	-0.00900269	-0.0169373
5.248	-0.00946045	-0.00823975	-0.0177002
5.25	-0.0109863	-0.00717163	-0.018158
5.252	-0.0109863	-0.00671387	-0.0177002
5.254	-0.0109863	-0.00640869	-0.017395
5.256	-0.012207	-0.00610352	-0.0183105
5.258	-0.0125122	-0.0062561	-0.0187683
5.26	-0.0125122	-0.00656128	-0.0190735
5.262	-0.0137329	-0.00656128	-0.0202942
5.264	-0.0143433	-0.00656128	-0.0209045
5.266	-0.0140381	-0.00701904	-0.0210571
5.268	-0.0143433	-0.00747681	-0.0218201
5.27	-0.0143433	-0.00793457	-0.0222778
5.272	-0.0128174	-0.00900269	-0.0218201
5.274	-0.0115967	-0.00976563	-0.0213623
5.276	-0.0112915	-0.0102234	-0.0215149
5.278	-0.010376	-0.0108337	-0.0212097
5.28	-0.00946045	-0.0112915	-0.020752
5.282	-0.010376	-0.0111389	-0.0215149
5.284	-0.0109863	-0.0111389	-0.0221252
5.286	-0.010376	-0.0112915	-0.0216675
5.288	-0.010376	-0.0109863	-0.0213623
5.29	-0.0106812	-0.010376	-0.0210571
5.292	-0.0100708	-0.00976563	-0.0198364
5.294	-0.00976563	-0.00900269	-0.0187683
5.296	-0.0109863	-0.00793457	-0.0189209
5.298	-0.0109863	-0.00747681	-0.0184631
5.3	-0.0100708	-0.00762939	-0.0177002
5.302	-0.0100708	-0.00762939	-0.0177002
5.304	-0.0100708	-0.00778198	-0.0178528
5.306	-0.00854492	-0.00793457	-0.0164795
5.308	-0.0088501	-0.00762939	-0.0164795
5.31	-0.00976563	-0.00701904	-0.0167847
5.312	-0.00915527	-0.00671387	-0.0158691
5.314	-0.00823975	-0.00671387	-0.0149536
5.316	-0.0088501	-0.0062561	-0.0151062
5.318	-0.0088501	-0.00579834	-0.0146484
5.32	-0.00915527	-0.00518799	-0.0143433
5.322	-0.0106812	-0.00427246	-0.0149536
5.324	-0.0115967	-0.0038147	-0.0154114
5.326	-0.0106812	-0.00427246	-0.0149536
5.328	-0.0106812	-0.00473022	-0.0154114
5.33	-0.0106812	-0.00518799	-0.0158691
5.332	-0.00976563	-0.00549316	-0.0152588
5.334	-0.00915527	-0.00518799	-0.0143433
5.336	-0.0106812	-0.00396729	-0.0146484
5.338	-0.0109863	-0.00320435	-0.0141907
5.34	-0.010376	-0.00289917	-0.0132751
5.342	-0.010376	-0.00259399	-0.01297
5.344	-0.00976563	-0.00259399	-0.0123596
5.346	-0.00793457	-0.00305176	-0.0109863
5.348	-0.00793457	-0.00289917	-0.0108337
5.35	-0.0088501	-0.00244141	-0.0112915
5.352	-0.00854492	-0.00274658	-0.0112915
5.354	-0.00854492	-0.00335693	-0.0119019
5.356	-0.00915527	-0.00350952	-0.0126648
5.358	-0.00915527	-0.00350952	-0.0126648
5.36	-0.0088501	-0.00350952	-0.0123596
5.362	-0.00976563	-0.00335693	-0.0131226
5.364	-0.00946045	-0.00396729	-0.0134277
5.366	-0.00793457	-0.0050354	-0.01297
5.368	-0.00732422	-0.00549316	-0.0128174
5.37	-0.00732422	-0.00610352	-0.0134277
5.372	-0.00549316	-0.00732422	-0.0128174
5.374	-0.00427246	-0.00854492	-0.0128174
5.376	-0.00427246	-0.00946045	-0.0137329
5.378	-0.00366211	-0.0102234	-0.0138855
5.38	-0.00335693	-0.0105286	-0.0138855
5.382	-0.00457764	-0.00991821	-0.0144958
5.384	-0.00579834	-0.00900269	-0.014801
5.386	-0.00640869	-0.00823975	-0.0146484
5.388	-0.00762939	-0.00747681	-0.0151062
5.39	-0.00946045	-0.00686646	-0.0163269
5.392	-0.00976563	-0.00656128	-0.0163269
5.394	-0.00976563	-0.0062561	-0.0160217
5.396	-0.00976563	-0.00579834	-0.015564
5.398	-0.00762939	-0.00595093	-0.0135803
5.4	-0.00457764	-0.00595093	-0.0105286
5.402	-0.00244141	-0.00518799	-0.00762939
5.404	-0.000305176	-0.00427246	-0.00457764
5.406	0.00244141	-0.00320435	-0.000762939
5.408	0.00366211	-0.00137329	0.00228882
5.41	0.00396729	0.00106812	0.0050354
5.412	0.00549316	0.0038147	0.00930786
5.414	0.00610352	0.00747681	0.0135803
5.416	0.00488281	0.012207	0.0170898
5.418	0.00457764	0.0170898	0.0216675
5.42	0.00457764	0.0215149	0.0260925
5.422	0.00366211	0.0259399	0.0296021
5.424	0.00335693	0.0291443	0.0325012
5.426	0.00549316	0.0305176	0.0360107
5.428	0.00762939	0.0306702	0.0382996
5.43	0.0100708	0.0296021	0.0396729
5.432	0.0146484	0.0274658	0.0421143
5.434	0.0195313	0.0253296	0.0448608
5.436	0.0231934	0.0244141	0.0476074
5.438	0.0274658	0.0242615	0.0517273
5.44	0.0314331	0.0244141	0.0558472
5.442	0.0326538	0.0248718	0.0575256
5.444	0.0326538	0.0257874	0.0584412
5.446	0.0326538	0.0262451	0.0588989
5.448	0.0305176	0.0262451	0.0567627
5.45	0.0280762	0.0248718	0.052948
5.452	0.0268555	0.0216675	0.0485229
5.454	0.0259399	0.0169373	0.0428772
5.456	0.0234985	0.0117493	0.0352478
5.458	0.0216675	0.00640869	0.0280762
5.46	0.0195313	0.00167847	0.0212097
5.462	0.0158691	-0.00213623	0.0137329
5.464	0.012207	-0.0050354	0.00717163
5.466	0.00976563	-0.00686646	0.00289917
5.468	0.00610352	-0.00747681	-0.00137329
5.47	0.00274658	-0.00778198	-0.0050354
5.472	0.000610352	-0.0088501	-0.00823975
5.474	-0.00213623	-0.0106812	-0.0128174
5.476	-0.00640869	-0.0128174	-0.0192261
5.478	-0.010376	-0.015564	-0.0259399
5.48	-0.0143433	-0.0184631	-0.0328064
5.482	-0.0192261	-0.0210571	-0.0402832
5.484	-0.0231934	-0.0234985	-0.0466919
5.486	-0.0253296	-0.0260925	-0.0514221
5.488	-0.0271606	-0.027771	-0.0549316
5.49	-0.0283813	-0.0285339	-0.0569153
5.492	-0.0274658	-0.0289917	-0.0564575
5.494	-0.0259399	-0.0286865	-0.0546265
5.496	-0.0250244	-0.027771	-0.0527954
5.498	-0.0228882	-0.0267029	-0.0495911
5.5	-0.0198364	-0.0260925	-0.045929
5.502	-0.0186157	-0.0254822	-0.0440979
5.504	-0.0170898	-0.0250244	-0.0421143
5.506	-0.0149536	-0.0250244	-0.039978
5.508	-0.0146484	-0.0242615	-0.0389099
5.51	-0.015564	-0.022583	-0.038147
5.512	-0.0161743	-0.0210571	-0.0372314
5.514	-0.0167847	-0.0196838	-0.0364685
5.516	-0.0183105	-0.0183105	-0.0366211
5.518	-0.0183105	-0.0180054	-0.0363159
5.52	-0.0167847	-0.0183105	-0.0350952
5.522	-0.0164795	-0.0186157	-0.0350952
5.524	-0.0161743	-0.0189209	-0.0350952
5.526	-0.0146484	-0.0192261	-0.0338745
5.528	-0.0143433	-0.0190735	-0.0334167
5.53	-0.0143433	-0.0187683	-0.0331116
5.532	-0.0128174	-0.0196838	-0.0325012
5.534	-0.0106812	-0.022583	-0.0332642
5.536	-0.00915527	-0.0285339	-0.0376892
5.538	-0.00640869	-0.0390625	-0.0454712
5.54	-0.00244141	-0.0518799	-0.0543213
5.542	-0.0012207	-0.0622559	-0.0634766
5.544	-0.000915527	-0.0669861	-0.0679016
5.546	0.0012207	-0.0660706	-0.0648499
5.548	0.00488281	-0.0596619	-0.0547791
5.55	0.0125122	-0.0497437	-0.0372314
5.552	0.0274658	-0.038147	-0.0106812
5.554	0.0494385	-0.0253296	0.0241089
5.556	0.0784302	-0.00900269	0.0694275
5.558	0.114746	0.0141907	0.128937
5.56	0.155029	0.0476074	0.202637
5.562	0.193787	0.0947571	0.288544
5.564	0.228577	0.15564	0.384216
5.566	0.256958	0.227356	0.484314
5.568	0.274353	0.306396	0.58075
5.57	0.276489	0.385437	0.661926
5.572	0.262146	0.450897	0.713043
5.574	0.228882	0.492401	0.721283
5.576	0.180054	0.504456	0.684509
5.578	0.122986	0.486755	0.609741
5.58	0.0616455	0.442047	0.503693
5.582	-0.00457764	0.376129	0.371552
5.584	-0.0720215	0.294495	0.222473
5.586	-0.132751	0.202179	0.0694275
5.588	-0.1828	0.105896	-0.0769043
5.59	-0.217285	0.0134277	-0.203857
5.592	-0.233154	-0.0679016	-0.301056
5.594	-0.232239	-0.130615	-0.362854
5.596	-0.219421	-0.170441	-0.389862
5.598	-0.195618	-0.188751	-0.384369
5.6	-0.16449	-0.189972	-0.354462
5.602	-0.13031	-0.178986	-0.309296
5.604	-0.0949097	-0.162659	-0.257568
5.606	-0.0598145	-0.146027	-0.205841
5.608	-0.0305176	-0.130157	-0.160675
5.61	-0.0088501	-0.114746	-0.123596
5.612	0.00518799	-0.0993347	-0.0941467
5.614	0.010376	-0.0827026	-0.0723267
5.616	0.00793457	-0.0654602	-0.0575256
5.618	0.00305176	-0.0495911	-0.0465393
5.62	-0.00305176	-0.0369263	-0.039978
5.622	-0.0100708	-0.0285339	-0.0386047
5.624	-0.0149536	-0.0257874	-0.040741
5.626	-0.0158691	-0.0283813	-0.0442505
5.628	-0.0152588	-0.0341797	-0.0494385
5.63	-0.0137329	-0.0410461	-0.0547791
5.632	-0.0100708	-0.0471497	-0.0572205
5.634	-0.00671387	-0.050354	-0.0570679
5.636	-0.00549316	-0.0497437	-0.0552368
5.638	-0.00427246	-0.0463867	-0.0506592
5.64	-0.00335693	-0.0415039	-0.0448608
5.642	-0.00488281	-0.0361633	-0.0410461
5.644	-0.00610352	-0.032196	-0.0382996
5.646	-0.00579834	-0.0306702	-0.0364685
5.648	-0.00610352	-0.0308228	-0.0369263
5.65	-0.00640869	-0.0320435	-0.0384521
5.652	-0.00457764	-0.0337219	-0.0382996
5.654	-0.00274658	-0.0343323	-0.0370789
5.656	-0.00244141	-0.032959	-0.0354004
5.658	-0.0012207	-0.0305176	-0.0317383
5.66	0.000610352	-0.0274658	-0.0268555
5.662	0.000610352	-0.0242615	-0.0236511
5.664	0.000610352	-0.0221252	-0.0215149
5.666	0.00213623	-0.0215149	-0.0193787
5.668	0.00305176	-0.0218201	-0.0187683
5.67	0.00305176	-0.0224304	-0.0193787
5.672	0.00457764	-0.0231934	-0.0186157
5.674	0.00518799	-0.0231934	-0.0180054
5.676	0.00427246	-0.0221252	-0.0178528
5.678	0.00457764	-0.0204468	-0.0158691
5.68	0.00549316	-0.0184631	-0.01297
5.682	0.00488281	-0.0161743	-0.0112915
5.684	0.00488281	-0.0144958	-0.00961304
5.686	0.00610352	-0.0138855	-0.00778198
5.688	0.00640869	-0.0138855	-0.00747681
5.69	0.00671387	-0.0138855	-0.00717163
5.692	0.00823975	-0.0141907	-0.00595093
5.694	0.00976563	-0.0140381	-0.00427246
5.696	0.0100708	-0.0132751	-0.00320435
5.698	0.0106812	-0.0120544	-0.00137329
5.7	0.0125122	-0.0108337	0.00167847
5.702	0.0134277	-0.00915527	0.00427246
5.704	0.0140381	-0.00762939	0.00640869
5.706	0.0158691	-0.00686646	0.00900269
5.708	0.0167847	-0.00640869	0.010376
5.71	0.017395	-0.0062561	0.0111389
5.712	0.0198364	-0.00579834	0.0140381
5.714	0.0213623	-0.00427246	0.0170898
5.716	0.0213623	-0.00152588	0.0198364
5.718	0.0219727	0.000305176	0.0222778
5.72	0.0234985	-0.000152588	0.0233459
5.722	0.0234985	-0.00152588	0.0219727
5.724	0.0238037	-0.00350952	0.0202942
5.726	0.0253296	-0.00549316	0.0198364
5.728	0.0259399	-0.00701904	0.0189209
5.73	0.0265503	-0.00793457	0.0186157
5.732	0.0283813	-0.00946045	0.0189209
5.734	0.0308228	-0.0108337	0.019989
5.736	0.0323486	-0.0120544	0.0202942
5.738	0.03479	-0.0131226	0.0216675
5.74	0.0378418	-0.0138855	0.0239563
5.742	0.0390625	-0.0135803	0.0254822
5.744	0.0405884	-0.0131226	0.0274658
5.746	0.043335	-0.0132751	0.0300598
5.748	0.045166	-0.0134277	0.0317383
5.75	0.0463867	-0.0141907	0.032196
5.752	0.0491333	-0.0158691	0.0332642
5.754	0.0524902	-0.0183105	0.0341797
5.756	0.0549316	-0.0205994	0.0343323
5.758	0.0588989	-0.0228882	0.0360107
5.76	0.0634766	-0.0248718	0.0386047
5.762	0.0668335	-0.0257874	0.0410461
5.764	0.0701904	-0.0260925	0.0440979
5.766	0.0741577	-0.0262451	0.0479126
5.768	0.0769043	-0.0257874	0.0511169
5.77	0.0790405	-0.0254822	0.0535583
5.772	0.0823975	-0.0256348	0.0567627
5.774	0.0857544	-0.0262451	0.0595093
5.776	0.0881958	-0.0267029	0.0614929
5.778	0.0915527	-0.0276184	0.0639343
5.78	0.09552	-0.0286865	0.0668335
5.782	0.0979614	-0.0289917	0.0689697
5.784	0.101013	-0.0294495	0.0715637
5.786	0.10498	-0.0299072	0.0750732
5.788	0.108337	-0.030365	0.0779724
5.79	0.110779	-0.0306702	0.0801086
5.792	0.113831	-0.0312805	0.08255
5.794	0.115662	-0.0314331	0.0842285
5.796	0.115051	-0.0305176	0.0845337
5.798	0.115051	-0.0294495	0.0856018
5.8	0.115356	-0.0282288	0.0871277
5.802	0.114136	-0.0262451	0.0878906
5.804	0.11261	-0.0239563	0.0886536
5.806	0.111694	-0.0213623	0.090332
5.808	0.108948	-0.0178528	0.091095
5.81	0.10498	-0.0138855	0.091095
5.812	0.101624	-0.00976563	0.0918579
5.814	0.0973511	-0.00549316	0.0918579
5.816	0.0912476	-0.000305176	0.0909424
5.818	0.0848389	0.00534058	0.0901794
5.82	0.0784302	0.0114441	0.0898743
5.822	0.0695801	0.0183105	0.0878906
5.824	0.0601196	0.0256348	0.0857544
5.826	0.0512695	0.0326538	0.0839233
5.828	0.0411987	0.0393677	0.0805664
5.83	0.0308228	0.0454712	0.0762939
5.832	0.0216675	0.050354	0.0720215
5.834	0.0125122	0.0546265	0.0671387
5.836	0.00183105	0.0582886	0.0601196
5.838	-0.00762939	0.0605774	0.052948
5.84	-0.0158691	0.0613403	0.0454712
5.842	-0.0247192	0.0613403	0.0366211
5.844	-0.0332642	0.06073	0.0274658
5.846	-0.0396729	0.0590515	0.0193787
5.848	-0.0457764	0.0567627	0.0109863
5.85	-0.0515747	0.0541687	0.00259399
5.852	-0.0549316	0.0511169	-0.0038147
5.854	-0.0576782	0.0482178	-0.00946045
5.856	-0.0610352	0.0460815	-0.0149536
5.858	-0.0631714	0.0439453	-0.0192261
5.86	-0.0643921	0.0421143	-0.0222778
5.862	-0.0671387	0.0408936	-0.0262451
5.864	-0.0695801	0.0396729	-0.0299072
5.866	-0.0701904	0.0379944	-0.032196
5.868	-0.071106	0.0358582	-0.0352478
5.87	-0.0720215	0.0335693	-0.0384521
5.872	-0.071106	0.0306702	-0.0404358
5.874	-0.0704956	0.0279236	-0.042572
5.876	-0.0704956	0.0257874	-0.0447083
5.878	-0.0695801	0.0234985	-0.0460815
5.88	-0.0674438	0.0215149	-0.045929
5.882	-0.0665283	0.0201416	-0.0463867
5.884	-0.0646973	0.0192261	-0.0454712
5.886	-0.0619507	0.0184631	-0.0434875
5.888	-0.0601196	0.0183105	-0.0418091
5.89	-0.0595093	0.0187683	-0.040741
5.892	-0.0582886	0.0195313	-0.0387573
5.894	-0.0567627	0.0201416	-0.0366211
5.896	-0.0567627	0.020752	-0.0360107
5.898	-0.0549316	0.0204468	-0.0344849
5.9	-0.0527954	0.019989	-0.0328064
5.902	-0.0518799	0.0196838	-0.032196
5.904	-0.0506592	0.0193787	-0.0312805
5.906	-0.0479126	0.0184631	-0.0294495
5.908	-0.0463867	0.0180054	-0.0283813
5.91	-0.0457764	0.0178528	-0.0279236
5.912	-0.0439453	0.0175476	-0.0263977
5.914	-0.0421143	0.017395	-0.0247192
5.916	-0.0415039	0.017395	-0.0241089
5.918	-0.0396729	0.0170898	-0.022583
5.92	-0.0375366	0.0166321	-0.0209045
5.922	-0.0366211	0.0164795	-0.0201416
5.924	-0.0360107	0.0167847	-0.0192261
5.926	-0.03479	0.0169373	-0.0178528
5.928	-0.0344849	0.0177002	-0.0167847
5.93	-0.0350952	0.0186157	-0.0164795
5.932	-0.0344849	0.0192261	-0.0152588
5.934	-0.0332642	0.0201416	-0.0131226
5.936	-0.032959	0.0218201	-0.0111389
5.938	-0.0314331	0.0242615	-0.00717163
5.94	-0.0289917	0.0263977	-0.00259399
5.942	-0.0280762	0.0271606	-0.000915527
5.944	-0.027771	0.0257874	-0.00198364
5.946	-0.0265503	0.0231934	-0.00335693
5.948	-0.0268555	0.0209045	-0.00595093
5.95	-0.027771	0.0190735	-0.00869751
5.952	-0.0274658	0.0175476	-0.00991821
5.954	-0.0268555	0.0163269	-0.0105286
5.956	-0.0271606	0.0158691	-0.0112915
5.958	-0.0265503	0.0154114	-0.0111389
5.96	-0.0250244	0.0154114	-0.00961304
5.962	-0.0250244	0.0163269	-0.00869751
5.964	-0.0253296	0.0180054	-0.00732422
5.966	-0.0238037	0.0195313	-0.00427246
5.968	-0.0228882	0.0210571	-0.00183105
5.97	-0.0219727	0.0222778	0.000305176
5.972	-0.0201416	0.0227356	0.00259399
5.974	-0.0183105	0.0227356	0.00442505
5.976	-0.0180054	0.0227356	0.00473022
5.978	-0.017395	0.0224304	0.0050354
5.98	-0.0164795	0.0218201	0.00534058
5.982	-0.0167847	0.0215149	0.00473022
5.984	-0.0170898	0.0212097	0.00411987
5.986	-0.0158691	0.0205994	0.00473022
5.988	-0.0152588	0.0202942	0.0050354
5.99	-0.015564	0.0202942	0.00473022
5.992	-0.0146484	0.019989	0.00534058
5.994	-0.0140381	0.0196838	0.00564575
5.996	-0.0146484	0.0195313	0.00488281
5.998	-0.0143433	0.0189209	0.00457764
6	-0.0134277	0.0183105	0.00488281
6.002	-0.0134277	0.0178528	0.00442505
6.004	-0.0134277	0.0178528	0.00442505
6.006	-0.012207	0.0175476	0.00534058
6.008	-0.0119019	0.0177002	0.00579834
6.01	-0.012207	0.0178528	0.00564575
6.012	-0.0109863	0.0177002	0.00671387
6.014	-0.00976563	0.017395	0.00762939
6.016	-0.0100708	0.0172424	0.00717163
6.018	-0.00976563	0.0167847	0.00701904
6.02	-0.00946045	0.0163269	0.00686646
6.022	-0.0106812	0.0161743	0.00549316
6.024	-0.012207	0.0163269	0.00411987
6.026	-0.0119019	0.0163269	0.00442505
6.028	-0.0125122	0.0170898	0.00457764
6.03	-0.0131226	0.0177002	0.00457764
6.032	-0.0125122	0.0177002	0.00518799
6.034	-0.0115967	0.0172424	0.00564575
6.036	-0.012207	0.0166321	0.00442505
6.038	-0.0115967	0.015564	0.00396729
6.04	-0.010376	0.0140381	0.00366211
6.042	-0.010376	0.0131226	0.00274658
6.044	-0.0100708	0.0126648	0.00259399
6.046	-0.0088501	0.0131226	0.00427246
6.048	-0.0088501	0.0152588	0.00640869
6.05	-0.00946045	0.0178528	0.00839233
6.052	-0.0088501	0.0186157	0.00976563
6.054	-0.00854492	0.017395	0.0088501
6.056	-0.0100708	0.015564	0.00549316
6.058	-0.010376	0.0135803	0.00320435
6.06	-0.0100708	0.0119019	0.00183105
6.062	-0.0112915	0.0111389	-0.000152588
6.064	-0.0119019	0.0106812	-0.0012207
6.066	-0.0115967	0.00976563	-0.00183105
6.068	-0.0119019	0.00946045	-0.00244141
6.07	-0.0131226	0.00961304	-0.00350952
6.072	-0.0128174	0.00991821	-0.00289917
6.074	-0.0128174	0.0108337	-0.00198364
6.076	-0.0140381	0.0123596	-0.00167847
6.078	-0.0137329	0.0137329	0
6.08	-0.0125122	0.014801	0.00228882
6.082	-0.012207	0.015564	0.00335693
6.084	-0.0119019	0.015564	0.00366211
6.086	-0.0106812	0.0146484	0.00396729
6.088	-0.010376	0.0138855	0.00350952
6.09	-0.0112915	0.0135803	0.00228882
6.092	-0.0112915	0.0131226	0.00183105
6.094	-0.0112915	0.0128174	0.00152588
6.096	-0.0128174	0.0131226	0.000305176
6.098	-0.0137329	0.0134277	-0.000305176
6.1	-0.0137329	0.0135803	-0.000152588
6.102	-0.0146484	0.0140381	-0.000610352
6.104	-0.0149536	0.0141907	-0.000762939
6.106	-0.0137329	0.0134277	-0.000305176
6.108	-0.0128174	0.0126648	-0.000152588
6.11	-0.0125122	0.012207	-0.000305176
6.112	-0.0109863	0.0119019	0.000915527
6.114	-0.0100708	0.0120544	0.00198364
6.116	-0.0106812	0.0131226	0.00244141
6.118	-0.010376	0.0141907	0.0038147
6.12	-0.0100708	0.0149536	0.00488281
6.122	-0.0109863	0.0157166	0.00473022
6.124	-0.0119019	0.0157166	0.0038147
6.126	-0.0112915	0.0151062	0.0038147
6.128	-0.0115967	0.0146484	0.00305176
6.13	-0.0119019	0.0143433	0.00244141
6.132	-0.0112915	0.0137329	0.00244141
6.134	-0.010376	0.0132751	0.00289917
6.136	-0.0112915	0.0132751	0.00198364
6.138	-0.0109863	0.0132751	0.00228882
6.14	-0.0100708	0.0132751	0.00320435
6.142	-0.010376	0.0135803	0.00320435
6.144	-0.0112915	0.0138855	0.00259399
6.146	-0.0109863	0.0138855	0.00289917
6.148	-0.0119019	0.0140381	0.00213623
6.15	-0.0131226	0.0143433	0.0012207
6.152	-0.0131226	0.0143433	0.0012207
6.154	-0.012207	0.0140381	0.00183105
6.156	-0.0119019	0.0137329	0.00183105
6.158	-0.010376	0.0131226	0.00274658
6.16	-0.00854492	0.0125122	0.00396729
6.162	-0.00823975	0.0126648	0.00442505
6.164	-0.00854492	0.0134277	0.00488281
6.166	-0.00762939	0.0138855	0.0062561
6.168	-0.00793457	0.0146484	0.00671387
6.17	-0.0088501	0.0154114	0.00656128
6.172	-0.00823975	0.0152588	0.00701904
6.174	-0.00732422	0.0151062	0.00778198
6.176	-0.00823975	0.0157166	0.00747681
6.178	-0.00854492	0.0161743	0.00762939
6.18	-0.00823975	0.0166321	0.00839233
6.182	-0.00854492	0.0170898	0.00854492
6.184	-0.0088501	0.0172424	0.00839233
6.186	-0.00793457	0.0170898	0.00915527
6.188	-0.00732422	0.0169373	0.00961304
6.19	-0.00701904	0.0167847	0.00976563
6.192	-0.00549316	0.0160217	0.0105286
6.194	-0.00366211	0.0151062	0.0114441
6.196	-0.00366211	0.0146484	0.0109863
6.198	-0.00366211	0.0140381	0.010376
6.2	-0.00305176	0.0134277	0.010376
6.202	-0.00427246	0.0134277	0.00915527
6.204	-0.00549316	0.0135803	0.00808716
6.206	-0.00549316	0.0135803	0.00808716
6.208	-0.00610352	0.0134277	0.00732422
6.21	-0.00732422	0.0134277	0.00610352
6.212	-0.00701904	0.01297	0.00595093
6.214	-0.00671387	0.0126648	0.00595093
6.216	-0.00793457	0.0132751	0.00534058
6.218	-0.00854492	0.0138855	0.00534058
6.22	-0.00762939	0.0140381	0.00640869
6.222	-0.00732422	0.0140381	0.00671387
6.224	-0.00640869	0.0132751	0.00686646
6.226	-0.00427246	0.0120544	0.00778198
6.228	-0.00335693	0.0111389	0.00778198
6.23	-0.00366211	0.0109863	0.00732422
6.232	-0.00335693	0.0106812	0.00732422
6.234	-0.00274658	0.010376	0.00762939
6.236	-0.00335693	0.0100708	0.00671387
6.238	-0.00274658	0.00930786	0.00656128
6.24	-0.0012207	0.00823975	0.00701904
6.242	-0.00152588	0.00793457	0.00640869
6.244	-0.00183105	0.00808716	0.0062561
6.246	-0.00152588	0.00839233	0.00686646
6.248	-0.00213623	0.00900269	0.00686646
6.25	-0.00366211	0.00946045	0.00579834
6.252	-0.00366211	0.00946045	0.00579834
6.254	-0.00366211	0.00915527	0.00549316
6.256	-0.00427246	0.00915527	0.00488281
6.258	-0.00396729	0.00915527	0.00518799
6.26	-0.00335693	0.00930786	0.00595093
6.262	-0.00427246	0.00976563	0.00549316
6.264	-0.00488281	0.00976563	0.00488281
6.266	-0.00396729	0.00900269	0.0050354
6.268	-0.00396729	0.00823975	0.00427246
6.27	-0.00457764	0.00762939	0.00305176
6.272	-0.00396729	0.00686646	0.00289917
6.274	-0.00366211	0.00610352	0.00244141
6.276	-0.00457764	0.00579834	0.0012207
6.278	-0.00457764	0.00549316	0.000915527
6.28	-0.00396729	0.00549316	0.00152588
6.282	-0.00396729	0.0062561	0.00228882
6.284	-0.00335693	0.00747681	0.00411987
6.286	-0.0012207	0.00823975	0.00701904
6.288	0.000305176	0.00946045	0.00976563
6.29	0.00152588	0.0108337	0.0123596
6.292	0.00457764	0.0120544	0.0166321
6.294	0.00793457	0.0134277	0.0213623
6.296	0.0100708	0.0158691	0.0259399
6.298	0.012207	0.0184631	0.0306702
6.3	0.0140381	0.0215149	0.035553
6.302	0.0131226	0.0254822	0.0386047
6.304	0.0115967	0.0297546	0.0413513
6.306	0.010376	0.0337219	0.0440979
6.308	0.00854492	0.0378418	0.0463867
6.31	0.00671387	0.040741	0.0474548
6.312	0.00762939	0.0416565	0.0492859
6.314	0.0100708	0.0408936	0.0509644
6.316	0.0134277	0.0389099	0.0523376
6.318	0.0192261	0.0354004	0.0546265
6.32	0.0271606	0.0317383	0.0588989
6.322	0.0335693	0.0292969	0.0628662
6.324	0.0384521	0.0279236	0.0663757
6.326	0.0430298	0.0273132	0.070343
6.328	0.0439453	0.027771	0.0717163
6.33	0.0424194	0.0286865	0.071106
6.332	0.0402832	0.0291443	0.0694275
6.334	0.0372314	0.0289917	0.0662231
6.336	0.0320435	0.0280762	0.0601196
6.338	0.0280762	0.0257874	0.0538635
6.34	0.0256348	0.0218201	0.0474548
6.342	0.0222778	0.0175476	0.0398254
6.344	0.0192261	0.0131226	0.0323486
6.346	0.017395	0.0088501	0.0262451
6.348	0.0149536	0.00549316	0.0204468
6.35	0.0125122	0.00320435	0.0157166
6.352	0.012207	0.00137329	0.0135803
6.354	0.0119019	-0.000152588	0.0117493
6.356	0.0100708	-0.00137329	0.00869751
6.358	0.00823975	-0.00320435	0.0050354
6.36	0.00579834	-0.00549316	0.000305176
6.362	0.000915527	-0.00762939	-0.00671387
6.364	-0.00518799	-0.00976563	-0.0149536
6.366	-0.0100708	-0.0123596	-0.0224304
6.368	-0.0146484	-0.0144958	-0.0291443
6.37	-0.0192261	-0.0160217	-0.0352478
6.372	-0.0213623	-0.0170898	-0.0384521
6.374	-0.0222778	-0.0177002	-0.039978
6.376	-0.0241089	-0.017395	-0.0415039
6.378	-0.0250244	-0.0167847	-0.0418091
6.38	-0.0244141	-0.0160217	-0.0404358
6.382	-0.0241089	-0.0151062	-0.0392151
6.384	-0.0231934	-0.0141907	-0.037384
6.386	-0.0201416	-0.0144958	-0.0346375
6.388	-0.017395	-0.014801	-0.032196
6.39	-0.0158691	-0.0151062	-0.0309753
6.392	-0.0137329	-0.0154114	-0.0291443
6.394	-0.012207	-0.0151062	-0.0273132
6.396	-0.0134277	-0.0137329	-0.0271606
6.398	-0.0143433	-0.0123596	-0.0267029
6.4	-0.0140381	-0.0112915	-0.0253296
6.402	-0.0146484	-0.0102234	-0.0248718
6.404	-0.0146484	-0.00946045	-0.0241089
6.406	-0.0134277	-0.00930786	-0.0227356
6.408	-0.0131226	-0.0088501	-0.0219727
6.41	-0.0140381	-0.00823975	-0.0222778
6.412	-0.0137329	-0.00778198	-0.0215149
6.414	-0.0131226	-0.00732422	-0.0204468
6.416	-0.0140381	-0.00656128	-0.0205994
6.418	-0.0143433	-0.00656128	-0.0209045
6.42	-0.0128174	-0.00915527	-0.0219727
6.422	-0.0119019	-0.0152588	-0.0271606
6.424	-0.00976563	-0.0256348	-0.0354004
6.426	-0.00579834	-0.0390625	-0.0448608
6.428	-0.00366211	-0.0502014	-0.0538635
6.43	-0.00305176	-0.0559998	-0.0590515
6.432	-0.000305176	-0.0569153	-0.0572205
6.434	0.00610352	-0.0537109	-0.0476074
6.436	0.0161743	-0.0469971	-0.0308228
6.438	0.0341797	-0.0389099	-0.00473022
6.44	0.06073	-0.0291443	0.0315857
6.442	0.093689	-0.0144958	0.0791931
6.444	0.132751	0.00900269	0.141754
6.446	0.175476	0.0442505	0.219727
6.448	0.21637	0.0942993	0.310669
6.45	0.251465	0.158691	0.410156
6.452	0.279236	0.233765	0.513
6.454	0.29541	0.315247	0.610657
6.456	0.2948	0.393677	0.688477
6.458	0.276489	0.456696	0.733185
6.46	0.241394	0.494843	0.736237
6.462	0.19104	0.503998	0.695038
6.464	0.132446	0.482025	0.614471
6.466	0.0698853	0.429688	0.499573
6.468	0.00213623	0.353546	0.355682
6.47	-0.0680542	0.261841	0.193787
6.472	-0.131226	0.161591	0.030365
6.474	-0.181885	0.0610352	-0.12085
6.476	-0.21698	-0.0309753	-0.247955
6.478	-0.233459	-0.106812	-0.340271
6.48	-0.232849	-0.160522	-0.393372
6.482	-0.219727	-0.190125	-0.409851
6.484	-0.195923	-0.197906	-0.393829
6.486	-0.162659	-0.189514	-0.352173
6.488	-0.126038	-0.170288	-0.296326
6.49	-0.0891113	-0.14679	-0.235901
6.492	-0.0540161	-0.124817	-0.178833
6.494	-0.0250244	-0.105743	-0.130768
6.496	-0.00549316	-0.0891113	-0.0946045
6.498	0.00610352	-0.0747681	-0.0686646
6.5	0.0100708	-0.0619507	-0.0518799
6.502	0.00671387	-0.0495911	-0.0428772
6.504	-0.000915527	-0.0382996	-0.0392151
6.506	-0.0088501	-0.0292969	-0.038147
6.508	-0.0164795	-0.0234985	-0.039978
6.51	-0.0222778	-0.0216675	-0.0439453
6.512	-0.0234985	-0.0245667	-0.0480652
6.514	-0.0216675	-0.0308228	-0.0524902
6.516	-0.0195313	-0.0378418	-0.057373
6.518	-0.0161743	-0.0440979	-0.0602722
6.52	-0.0128174	-0.04776	-0.0605774
6.522	-0.0115967	-0.0474548	-0.0590515
6.524	-0.0119019	-0.0436401	-0.055542
6.526	-0.0112915	-0.0384521	-0.0497437
6.528	-0.0112915	-0.032959	-0.0442505
6.53	-0.0115967	-0.0286865	-0.0402832
6.532	-0.0100708	-0.0268555	-0.0369263
6.534	-0.00793457	-0.0270081	-0.0349426
6.536	-0.00701904	-0.0280762	-0.0350952
6.538	-0.00579834	-0.0294495	-0.0352478
6.54	-0.00396729	-0.030365	-0.0343323
6.542	-0.00366211	-0.0297546	-0.0334167
6.544	-0.00396729	-0.0282288	-0.032196
6.546	-0.00274658	-0.0262451	-0.0289917
6.548	-0.00244141	-0.0236511	-0.0260925
6.55	-0.00305176	-0.0210571	-0.0241089
6.552	-0.00213623	-0.0196838	-0.0218201
6.554	-0.000610352	-0.0193787	-0.019989
6.556	0	-0.0195313	-0.0195313
6.558	0.00152588	-0.0201416	-0.0186157
6.56	0.00335693	-0.0205994	-0.0172424
6.562	0.00366211	-0.0196838	-0.0160217
6.564	0.00366211	-0.0180054	-0.0143433
6.566	0.00457764	-0.0163269	-0.0117493
6.568	0.00488281	-0.0143433	-0.00946045
6.57	0.00366211	-0.0123596	-0.00869751
6.572	0.00396729	-0.0112915	-0.00732422
6.574	0.00488281	-0.0106812	-0.00579834
6.576	0.00427246	-0.0100708	-0.00579834
6.578	0.00488281	-0.00961304	-0.00473022
6.58	0.00640869	-0.00930786	-0.00289917
6.582	0.00671387	-0.00823975	-0.00152588
6.584	0.00640869	-0.00656128	-0.000152588
6.586	0.00762939	-0.0050354	0.00259399
6.588	0.00823975	-0.00335693	0.00488281
6.59	0.0088501	-0.00228882	0.00656128
6.592	0.0109863	-0.00183105	0.00915527
6.594	0.0134277	-0.00167847	0.0117493
6.596	0.0143433	-0.00106812	0.0132751
6.598	0.0158691	-0.000915527	0.0149536
6.6	0.0180054	-0.0012207	0.0167847
6.602	0.0189209	-0.00106812	0.0178528
6.604	0.0192261	-0.000762939	0.0184631
6.606	0.020752	-0.000762939	0.019989
6.608	0.0216675	-0.000457764	0.0212097
6.61	0.0216675	0	0.0216675
6.612	0.0234985	-0.000152588	0.0233459
6.614	0.0259399	-0.000610352	0.0253296
6.616	0.0274658	-0.000762939	0.0267029
6.618	0.0296021	-0.0012207	0.0283813
6.62	0.0320435	-0.00183105	0.0302124
6.622	0.0332642	-0.00228882	0.0309753
6.624	0.0344849	-0.00259399	0.0318909
6.626	0.0369263	-0.00305176	0.0338745
6.628	0.0390625	-0.00350952	0.035553
6.63	0.039978	-0.0038147	0.0361633
6.632	0.0427246	-0.00473022	0.0379944
6.634	0.0460815	-0.00579834	0.0402832
6.636	0.0482178	-0.00656128	0.0416565
6.638	0.0509644	-0.00762939	0.043335
6.64	0.0552368	-0.00930786	0.045929
6.642	0.0588989	-0.0108337	0.0480652
6.644	0.062561	-0.0126648	0.0498962
6.646	0.0671387	-0.0149536	0.0521851
6.648	0.0704956	-0.0170898	0.0534058
6.65	0.0726318	-0.0187683	0.0538635
6.652	0.0762939	-0.0204468	0.0558472
6.654	0.0796509	-0.0218201	0.0578308
6.656	0.0817871	-0.022583	0.0592041
6.658	0.0845337	-0.0233459	0.0611877
6.66	0.0878906	-0.0242615	0.0636292
6.662	0.0906372	-0.0248718	0.0657654
6.664	0.093689	-0.0254822	0.0682068
6.666	0.0985718	-0.0265503	0.0720215
6.668	0.102539	-0.0273132	0.0752258
6.67	0.105286	-0.0276184	0.0776672
6.672	0.108948	-0.0279236	0.0810242
6.674	0.11261	-0.0282288	0.0843811
6.676	0.114746	-0.0282288	0.0865173
6.678	0.116882	-0.0282288	0.0886536
6.68	0.119324	-0.0282288	0.091095
6.682	0.119324	-0.0273132	0.0920105
6.684	0.118713	-0.0260925	0.0926208
6.686	0.119019	-0.0250244	0.0939941
6.688	0.118103	-0.0231934	0.0949097
6.69	0.115967	-0.020752	0.0952148
6.692	0.114746	-0.0183105	0.0964355
6.694	0.11322	-0.015564	0.0976563
6.696	0.109863	-0.0117493	0.098114
6.698	0.105896	-0.00701904	0.098877
6.7	0.101624	-0.00152588	0.100098
6.702	0.0952148	0.0050354	0.10025
6.704	0.0881958	0.0117493	0.0999451
6.706	0.0827026	0.0183105	0.101013
6.708	0.0753784	0.0250244	0.100403
6.71	0.0665283	0.0317383	0.0982666
6.712	0.0582886	0.037384	0.0956726
6.714	0.0497437	0.0422668	0.0920105
6.716	0.0396729	0.0468445	0.0865173
6.718	0.0302124	0.050354	0.0805664
6.72	0.0213623	0.0527954	0.0741577
6.722	0.0112915	0.0547791	0.0660706
6.724	0.000610352	0.0559998	0.0566101
6.726	-0.00854492	0.0563049	0.04776
6.728	-0.0177002	0.0559998	0.0382996
6.73	-0.0271606	0.0553894	0.0282288
6.732	-0.0344849	0.0538635	0.0193787
6.734	-0.0402832	0.0518799	0.0115967
6.736	-0.0463867	0.0497437	0.00335693
6.738	-0.0509644	0.0473022	-0.00366211
6.74	-0.0543213	0.0442505	-0.0100708
6.742	-0.057373	0.0415039	-0.0158691
6.744	-0.0601196	0.0386047	-0.0215149
6.746	-0.0610352	0.0354004	-0.0256348
6.748	-0.0622559	0.0326538	-0.0296021
6.75	-0.0646973	0.030365	-0.0343323
6.752	-0.065918	0.0283813	-0.0375366
6.754	-0.0668335	0.0265503	-0.0402832
6.756	-0.0683594	0.0250244	-0.043335
6.758	-0.0689697	0.0233459	-0.0456238
6.76	-0.0680542	0.0212097	-0.0468445
6.762	-0.067749	0.0195313	-0.0482178
6.764	-0.0671387	0.0180054	-0.0491333
6.766	-0.0650024	0.0161743	-0.0488281
6.768	-0.0631714	0.0144958	-0.0486755
6.77	-0.0622559	0.0132751	-0.0489807
6.772	-0.0601196	0.0117493	-0.0483704
6.774	-0.0576782	0.010376	-0.0473022
6.776	-0.0567627	0.00976563	-0.0469971
6.778	-0.055542	0.00946045	-0.0460815
6.78	-0.0540161	0.00900269	-0.0450134
6.782	-0.0537109	0.0088501	-0.0448608
6.784	-0.0537109	0.0088501	-0.0448608
6.786	-0.0524902	0.00854492	-0.0439453
6.788	-0.0515747	0.00823975	-0.043335
6.79	-0.0512695	0.00808716	-0.0431824
6.792	-0.0491333	0.00701904	-0.0421143
6.794	-0.0460815	0.00534058	-0.040741
6.796	-0.0445557	0.00366211	-0.0408936
6.798	-0.0421143	0.00198364	-0.0401306
6.8	-0.0396729	0.000305176	-0.0393677
6.802	-0.0384521	-0.000457764	-0.0389099
6.804	-0.038147	-0.000305176	-0.0384521
6.806	-0.0366211	0.000152588	-0.0364685
6.808	-0.0357056	0.00106812	-0.0346375
6.81	-0.0363159	0.00228882	-0.0340271
6.812	-0.0357056	0.00305176	-0.0326538
6.814	-0.03479	0.00350952	-0.0312805
6.816	-0.0350952	0.00427246	-0.0308228
6.818	-0.03479	0.00473022	-0.0300598
6.82	-0.0332642	0.00488281	-0.0283813
6.822	-0.032959	0.00518799	-0.027771
6.824	-0.0326538	0.00534058	-0.0273132
6.826	-0.0311279	0.0050354	-0.0260925
6.828	-0.0302124	0.00473022	-0.0254822
6.83	-0.0305176	0.0050354	-0.0254822
6.832	-0.0299072	0.00534058	-0.0245667
6.834	-0.0289917	0.00564575	-0.0233459
6.836	-0.0286865	0.00610352	-0.022583
6.838	-0.0280762	0.00656128	-0.0215149
6.84	-0.0268555	0.00701904	-0.0198364
6.842	-0.0271606	0.00762939	-0.0195313
6.844	-0.0271606	0.00762939	-0.0195313
6.846	-0.0250244	0.00671387	-0.0183105
6.848	-0.0231934	0.00549316	-0.0177002
6.85	-0.022583	0.00457764	-0.0180054
6.852	-0.0210571	0.00350952	-0.0175476
6.854	-0.0195313	0.00259399	-0.0169373
6.856	-0.0198364	0.00244141	-0.017395
6.858	-0.0201416	0.00259399	-0.0175476
6.86	-0.0198364	0.00244141	-0.017395
6.862	-0.0204468	0.00274658	-0.0177002
6.864	-0.0210571	0.00259399	-0.0184631
6.866	-0.0192261	0.00198364	-0.0172424
6.868	-0.0177002	0.00152588	-0.0161743
6.87	-0.017395	0.00152588	-0.0158691
6.872	-0.0164795	0.00152588	-0.0149536
6.874	-0.015564	0.00152588	-0.0140381
6.876	-0.0158691	0.00167847	-0.0141907
6.878	-0.0158691	0.00152588	-0.0143433
6.88	-0.0152588	0.00106812	-0.0141907
6.882	-0.0158691	0.000915527	-0.0149536
6.884	-0.0167847	0.00106812	-0.0157166
6.886	-0.0164795	0.00137329	-0.0151062
6.888	-0.0167847	0.00213623	-0.0146484
6.89	-0.0180054	0.00350952	-0.0144958
6.892	-0.0177002	0.00442505	-0.0132751
6.894	-0.0164795	0.00518799	-0.0112915
6.896	-0.0158691	0.00595093	-0.00991821
6.898	-0.0143433	0.00640869	-0.00793457
6.9	-0.012207	0.00640869	-0.00579834
6.902	-0.0115967	0.00686646	-0.00473022
6.904	-0.0112915	0.00701904	-0.00427246
6.906	-0.010376	0.00671387	-0.00366211
6.908	-0.0106812	0.00656128	-0.00411987
6.91	-0.0115967	0.00656128	-0.0050354
6.912	-0.0115967	0.0062561	-0.00534058
6.914	-0.0109863	0.00595093	-0.0050354
6.916	-0.0112915	0.00610352	-0.00518799
6.918	-0.0109863	0.00595093	-0.0050354
6.92	-0.00976563	0.00579834	-0.00396729
6.922	-0.010376	0.00640869	-0.00396729
6.924	-0.0115967	0.00701904	-0.00457764
6.926	-0.0112915	0.00701904	-0.00427246
6.928	-0.0112915	0.00671387	-0.00457764
6.93	-0.012207	0.00640869	-0.00579834
6.932	-0.0119019	0.00549316	-0.00640869
6.934	-0.0112915	0.00442505	-0.00686646
6.936	-0.0119019	0.00350952	-0.00839233
6.938	-0.0119019	0.00259399	-0.00930786
6.94	-0.0109863	0.00167847	-0.00930786
6.942	-0.0115967	0.00106812	-0.0105286
6.944	-0.0125122	0.000915527	-0.0115967
6.946	-0.012207	0.000915527	-0.0112915
6.948	-0.0128174	0.00106812	-0.0117493
6.95	-0.0137329	0.00137329	-0.0123596
6.952	-0.0131226	0.00106812	-0.0120544
6.954	-0.0119019	0.000762939	-0.0111389
6.956	-0.012207	0.00106812	-0.0111389
6.958	-0.0119019	0.00152588	-0.010376
6.96	-0.0106812	0.0012207	-0.00946045
6.962	-0.010376	0.000762939	-0.00961304
6.964	-0.0106812	0.000152588	-0.0105286
6.966	-0.00976563	-0.000762939	-0.0105286
6.968	-0.00976563	-0.00152588	-0.0112915
6.97	-0.0106812	-0.00167847	-0.0123596
6.972	-0.0109863	-0.00198364	-0.01297
6.974	-0.0109863	-0.00213623	-0.0131226
6.976	-0.0125122	-0.00183105	-0.0143433
6.978	-0.0134277	-0.00167847	-0.0151062
6.98	-0.0128174	-0.00183105	-0.0146484
6.982	-0.0131226	-0.00198364	-0.0151062
6.984	-0.0134277	-0.00198364	-0.0154114
6.986	-0.0125122	-0.00259399	-0.0151062
6.988	-0.012207	-0.00305176	-0.0152588
6.99	-0.0125122	-0.00335693	-0.0158691
6.992	-0.0119019	-0.00411987	-0.0160217
6.994	-0.0106812	-0.00488281	-0.015564
6.996	-0.0109863	-0.00534058	-0.0163269
6.998	-0.0109863	-0.00579834	-0.0167847
7	-0.00976563	-0.0062561	-0.0160217
7.002	-0.0100708	-0.00595093	-0.0160217
7.004	-0.0106812	-0.00549316	-0.0161743
7.006	-0.00976563	-0.00534058	-0.0151062
7.008	-0.00946045	-0.00518799	-0.0146484
7.01	-0.010376	-0.00473022	-0.0151062
7.012	-0.00946045	-0.00457764	-0.0140381
7.014	-0.00823975	-0.00488281	-0.0131226
7.016	-0.00854492	-0.00473022	-0.0132751
7.018	-0.00854492	-0.00473022	-0.0132751
7.02	-0.00793457	-0.00488281	-0.0128174
7.022	-0.0088501	-0.00488281	-0.0137329
7.024	-0.0100708	-0.00457764	-0.0146484
7.026	-0.00976563	-0.00442505	-0.0141907
7.028	-0.010376	-0.0038147	-0.0141907
7.03	-0.0119019	-0.00305176	-0.0149536
7.032	-0.0119019	-0.00289917	-0.014801
7.034	-0.0112915	-0.00320435	-0.0144958
7.036	-0.0112915	-0.00350952	-0.014801
7.038	-0.0106812	-0.00411987	-0.014801
7.04	-0.0088501	-0.00488281	-0.0137329
7.042	-0.00854492	-0.00534058	-0.0138855
7.044	-0.0088501	-0.00579834	-0.0146484
7.046	-0.00793457	-0.00671387	-0.0146484
7.048	-0.00762939	-0.00762939	-0.0152588
7.05	-0.00823975	-0.00823975	-0.0164795
7.052	-0.00823975	-0.00900269	-0.0172424
7.054	-0.00793457	-0.00961304	-0.0175476
7.056	-0.00915527	-0.00946045	-0.0186157
7.058	-0.0100708	-0.00869751	-0.0187683
7.06	-0.0100708	-0.00823975	-0.0183105
7.062	-0.010376	-0.00762939	-0.0180054
7.064	-0.0106812	-0.00701904	-0.0177002
7.066	-0.00946045	-0.00717163	-0.0166321
7.068	-0.0088501	-0.00717163	-0.0160217
7.07	-0.00976563	-0.00671387	-0.0164795
7.072	-0.00946045	-0.00656128	-0.0160217
7.074	-0.0088501	-0.00656128	-0.0154114
7.076	-0.00915527	-0.00656128	-0.0157166
7.078	-0.00915527	-0.00686646	-0.0160217
7.08	-0.00793457	-0.00762939	-0.015564
7.082	-0.00823975	-0.00808716	-0.0163269
7.084	-0.00915527	-0.00808716	-0.0172424
7.086	-0.00854492	-0.00854492	-0.0170898
7.088	-0.00854492	-0.00869751	-0.0172424
7.09	-0.00976563	-0.00839233	-0.018158
7.092	-0.00946045	-0.00839233	-0.0178528
7.094	-0.00854492	-0.00839233	-0.0169373
7.096	-0.00915527	-0.00793457	-0.0170898
7.098	-0.00976563	-0.00747681	-0.0172424
7.1	-0.00946045	-0.00717163	-0.0166321
7.102	-0.010376	-0.00640869	-0.0167847
7.104	-0.0112915	-0.00534058	-0.0166321
7.106	-0.0106812	-0.00488281	-0.015564
7.108	-0.00976563	-0.00457764	-0.0143433
7.11	-0.0100708	-0.00442505	-0.0144958
7.112	-0.00915527	-0.00457764	-0.0137329
7.114	-0.00823975	-0.00488281	-0.0131226
7.116	-0.00823975	-0.0050354	-0.0132751
7.118	-0.00732422	-0.00564575	-0.01297
7.12	-0.00579834	-0.00640869	-0.012207
7.122	-0.00640869	-0.0062561	-0.0126648
7.124	-0.00762939	-0.00564575	-0.0132751
7.126	-0.00762939	-0.00549316	-0.0131226
7.128	-0.00762939	-0.00518799	-0.0128174
7.13	-0.00854492	-0.00488281	-0.0134277
7.132	-0.00854492	-0.0050354	-0.0135803
7.134	-0.00823975	-0.0050354	-0.0132751
7.136	-0.00946045	-0.00488281	-0.0143433
7.138	-0.00976563	-0.0050354	-0.014801
7.14	-0.00854492	-0.00595093	-0.0144958
7.142	-0.00823975	-0.00671387	-0.0149536
7.144	-0.00823975	-0.00747681	-0.0157166
7.146	-0.00640869	-0.00839233	-0.014801
7.148	-0.00549316	-0.00930786	-0.014801
7.15	-0.00549316	-0.0100708	-0.015564
7.152	-0.00457764	-0.0111389	-0.0157166
7.154	-0.00335693	-0.0120544	-0.0154114
7.156	-0.00366211	-0.0120544	-0.0157166
7.158	-0.00366211	-0.0119019	-0.015564
7.16	-0.00274658	-0.0119019	-0.0146484
7.162	-0.00366211	-0.0114441	-0.0151062
7.164	-0.00518799	-0.0106812	-0.0158691
7.166	-0.00549316	-0.0102234	-0.0157166
7.168	-0.00640869	-0.00961304	-0.0160217
7.17	-0.00793457	-0.0088501	-0.0167847
7.172	-0.00854492	-0.00808716	-0.0166321
7.174	-0.00854492	-0.00732422	-0.0158691
7.176	-0.00976563	-0.0062561	-0.0160217
7.178	-0.00946045	-0.00595093	-0.0154114
7.18	-0.00762939	-0.00656128	-0.0141907
7.182	-0.00732422	-0.00671387	-0.0140381
7.184	-0.00854492	-0.00595093	-0.0144958
7.186	-0.0088501	-0.00488281	-0.0137329
7.188	-0.00976563	-0.0038147	-0.0135803
7.19	-0.0109863	-0.00289917	-0.0138855
7.192	-0.0106812	-0.00244141	-0.0131226
7.194	-0.00946045	-0.00198364	-0.0114441
7.196	-0.00915527	-0.00106812	-0.0102234
7.198	-0.00823975	0	-0.00823975
7.2	-0.00640869	0.00106812	-0.00534058
7.202	-0.00549316	0.00228882	-0.00320435
7.204	-0.00396729	0.00335693	-0.000610352
7.206	-0.000915527	0.0038147	0.00289917
7.208	0.00183105	0.00488281	0.00671387
7.21	0.00274658	0.00717163	0.00991821
7.212	0.00396729	0.0102234	0.0141907
7.214	0.00457764	0.0140381	0.0186157
7.216	0.00366211	0.0189209	0.022583
7.218	0.00274658	0.0239563	0.0267029
7.22	0.00274658	0.0283813	0.0311279
7.222	0.00183105	0.0318909	0.0337219
7.224	0.0012207	0.0338745	0.0350952
7.226	0.00274658	0.0337219	0.0364685
7.228	0.00518799	0.0323486	0.0375366
7.23	0.00793457	0.0300598	0.0379944
7.232	0.0134277	0.0268555	0.0402832
7.234	0.0201416	0.0236511	0.0437927
7.236	0.0250244	0.0213623	0.0463867
7.238	0.0292969	0.0196838	0.0489807
7.24	0.032959	0.0184631	0.0514221
7.242	0.0335693	0.018158	0.0517273
7.244	0.0323486	0.0184631	0.0508118
7.246	0.0317383	0.0183105	0.0500488
7.248	0.0299072	0.017395	0.0473022
7.25	0.0265503	0.0158691	0.0424194
7.252	0.0241089	0.01297	0.0370789
7.254	0.0219727	0.00930786	0.0312805
7.256	0.0186157	0.00595093	0.0245667
7.258	0.015564	0.00274658	0.0183105
7.26	0.0137329	-0.000152588	0.0135803
7.262	0.0106812	-0.00259399	0.00808716
7.264	0.00823975	-0.00473022	0.00350952
7.266	0.00732422	-0.00747681	-0.000152588
7.268	0.00549316	-0.0100708	-0.00457764
7.27	0.00152588	-0.0120544	-0.0105286
7.272	-0.00274658	-0.0141907	-0.0169373
7.274	-0.00732422	-0.0169373	-0.0242615
7.276	-0.0134277	-0.0198364	-0.0332642
7.278	-0.0189209	-0.0233459	-0.0422668
7.28	-0.0231934	-0.0271606	-0.050354
7.282	-0.0274658	-0.0300598	-0.0575256
7.284	-0.0311279	-0.0320435	-0.0631714
7.286	-0.0317383	-0.0332642	-0.0650024
7.288	-0.0317383	-0.0335693	-0.0653076
7.29	-0.0323486	-0.0326538	-0.0650024
7.292	-0.0311279	-0.0314331	-0.062561
7.294	-0.0289917	-0.030365	-0.0593567
7.296	-0.0274658	-0.0291443	-0.0566101
7.298	-0.0250244	-0.0283813	-0.0534058
7.3	-0.0219727	-0.0283813	-0.050354
7.302	-0.0201416	-0.0280762	-0.0482178
7.304	-0.0195313	-0.0276184	-0.0471497
7.306	-0.0180054	-0.0271606	-0.045166
7.308	-0.017395	-0.0260925	-0.0434875
7.31	-0.0186157	-0.0241089	-0.0427246
7.312	-0.0189209	-0.0221252	-0.0410461
7.314	-0.0189209	-0.0202942	-0.0392151
7.316	-0.0195313	-0.0184631	-0.0379944
7.318	-0.0192261	-0.0170898	-0.0363159
7.32	-0.0177002	-0.0164795	-0.0341797
7.322	-0.0170898	-0.0157166	-0.0328064
7.324	-0.017395	-0.0146484	-0.0320435
7.326	-0.0164795	-0.0137329	-0.0302124
7.328	-0.0161743	-0.0128174	-0.0289917
7.33	-0.0170898	-0.0125122	-0.0296021
7.332	-0.0167847	-0.014801	-0.0315857
7.334	-0.0143433	-0.0215149	-0.0358582
7.336	-0.0119019	-0.0326538	-0.0445557
7.338	-0.00823975	-0.0460815	-0.0543213
7.34	-0.00396729	-0.0575256	-0.0614929
7.342	-0.00183105	-0.063324	-0.065155
7.344	0.000915527	-0.0637817	-0.0628662
7.346	0.00793457	-0.0604248	-0.0524902
7.348	0.0198364	-0.0543213	-0.0344849
7.35	0.0372314	-0.0465393	-0.00930786
7.352	0.0634766	-0.0378418	0.0256348
7.354	0.0982666	-0.0248718	0.0733948
7.356	0.137634	-0.00259399	0.13504
7.358	0.180054	0.032959	0.213013
7.36	0.221863	0.0843811	0.306244
7.362	0.256958	0.151215	0.408173
7.364	0.282898	0.22934	0.512238
7.366	0.297852	0.311279	0.609131
7.368	0.296326	0.387421	0.683746
7.37	0.274963	0.447388	0.722351
7.372	0.237122	0.482483	0.719604
7.374	0.186768	0.489197	0.675964
7.376	0.126953	0.466309	0.593262
7.378	0.0613403	0.413971	0.475311
7.38	-0.00854492	0.337982	0.329437
7.382	-0.0805664	0.24704	0.166473
7.384	-0.14679	0.149078	0.00228882
7.386	-0.196838	0.0508118	-0.146027
7.388	-0.228577	-0.0390625	-0.267639
7.39	-0.242615	-0.112305	-0.354919
7.392	-0.239258	-0.164032	-0.40329
7.394	-0.221558	-0.193024	-0.414581
7.396	-0.194702	-0.200958	-0.39566
7.398	-0.160828	-0.192719	-0.353546
7.4	-0.122681	-0.174561	-0.297241
7.402	-0.0857544	-0.152435	-0.23819
7.404	-0.0531006	-0.130768	-0.183868
7.406	-0.0247192	-0.112152	-0.136871
7.408	-0.00488281	-0.0956726	-0.100555
7.41	0.00488281	-0.0804138	-0.075531
7.412	0.00762939	-0.0662231	-0.0585938
7.414	0.00488281	-0.052948	-0.0480652
7.416	-0.00274658	-0.0408936	-0.0436401
7.418	-0.0109863	-0.0318909	-0.0428772
7.42	-0.0167847	-0.0273132	-0.0440979
7.422	-0.0204468	-0.0273132	-0.04776
7.424	-0.0219727	-0.0312805	-0.0532532
7.426	-0.0198364	-0.0378418	-0.0576782
7.428	-0.0167847	-0.0445557	-0.0613403
7.43	-0.0152588	-0.0494385	-0.0646973
7.432	-0.0134277	-0.0517273	-0.065155
7.434	-0.012207	-0.0506592	-0.0628662
7.436	-0.0128174	-0.0466919	-0.0595093
7.438	-0.0134277	-0.0411987	-0.0546265
7.44	-0.0131226	-0.0361633	-0.0492859
7.442	-0.0128174	-0.0325012	-0.0453186
7.444	-0.0119019	-0.0314331	-0.043335
7.446	-0.0088501	-0.032959	-0.0418091
7.448	-0.00579834	-0.035553	-0.0413513
7.45	-0.00457764	-0.0375366	-0.0421143
7.452	-0.00335693	-0.0382996	-0.0416565
7.454	-0.00274658	-0.0375366	-0.0402832
7.456	-0.00335693	-0.0350952	-0.0384521
7.458	-0.00396729	-0.0318909	-0.0358582
7.46	-0.00305176	-0.0289917	-0.0320435
7.462	-0.00274658	-0.0268555	-0.0296021
7.464	-0.00183105	-0.0259399	-0.027771
7.466	0.000915527	-0.0265503	-0.0256348
7.468	0.00335693	-0.0274658	-0.0241089
7.47	0.00427246	-0.0280762	-0.0238037
7.472	0.00579834	-0.0280762	-0.0222778
7.474	0.00671387	-0.0276184	-0.0209045
7.476	0.00610352	-0.0259399	-0.0198364
7.478	0.00549316	-0.0239563	-0.0184631
7.48	0.00549316	-0.0218201	-0.0163269
7.482	0.00427246	-0.0195313	-0.0152588
7.484	0.00335693	-0.0178528	-0.0144958
7.486	0.00427246	-0.0172424	-0.01297
7.488	0.00518799	-0.0169373	-0.0117493
7.49	0.00549316	-0.0164795	-0.0109863
7.492	0.00671387	-0.0163269	-0.00961304
7.494	0.0088501	-0.0158691	-0.00701904
7.496	0.00976563	-0.0149536	-0.00518799
7.498	0.0109863	-0.0141907	-0.00320435
7.5	0.0131226	-0.0137329	-0.000610352
7.502	0.0137329	-0.0128174	0.000915527
7.504	0.0137329	-0.0119019	0.00183105
7.506	0.0149536	-0.0112915	0.00366211
7.508	0.015564	-0.0102234	0.00534058
7.51	0.0146484	-0.0088501	0.00579834
7.512	0.0149536	-0.00778198	0.00717163
7.514	0.0161743	-0.00717163	0.00900269
7.516	0.0167847	-0.0062561	0.0105286
7.518	0.017395	-0.00534058	0.0120544
7.52	0.0195313	-0.00473022	0.014801
7.522	0.0204468	-0.00411987	0.0163269
7.524	0.0213623	-0.00396729	0.017395
7.526	0.0241089	-0.00457764	0.0195313
7.528	0.0271606	-0.00549316	0.0216675
7.53	0.0283813	-0.0062561	0.0221252
7.532	0.0305176	-0.00732422	0.0231934
7.534	0.032959	-0.00839233	0.0245667
7.536	0.0341797	-0.00915527	0.0250244
7.538	0.0357056	-0.00991821	0.0257874
7.54	0.038147	-0.0109863	0.0271606
7.542	0.039978	-0.0115967	0.0283813
7.544	0.0411987	-0.012207	0.0289917
7.546	0.0442505	-0.0134277	0.0308228
7.548	0.0473022	-0.014801	0.0325012
7.55	0.0494385	-0.0160217	0.0334167
7.552	0.0527954	-0.0175476	0.0352478
7.554	0.0567627	-0.0192261	0.0375366
7.556	0.0595093	-0.020752	0.0387573
7.558	0.0628662	-0.0224304	0.0404358
7.56	0.0671387	-0.0244141	0.0427246
7.562	0.0701904	-0.0260925	0.0440979
7.564	0.0726318	-0.0274658	0.045166
7.566	0.0769043	-0.0292969	0.0476074
7.568	0.0811768	-0.0309753	0.0502014
7.57	0.0845337	-0.032196	0.0523376
7.572	0.0891113	-0.0334167	0.0556946
7.574	0.0939941	-0.0344849	0.0595093
7.576	0.0973511	-0.0349426	0.0624084
7.578	0.100708	-0.0352478	0.0654602
7.58	0.10498	-0.0360107	0.0689697
7.582	0.108032	-0.0361633	0.0718689
7.584	0.109863	-0.0360107	0.0738525
7.586	0.112915	-0.0360107	0.0769043
7.588	0.115356	-0.035553	0.0798035
7.59	0.116272	-0.0344849	0.0817871
7.592	0.117798	-0.0335693	0.0842285
7.594	0.119324	-0.0328064	0.0865173
7.596	0.119324	-0.0311279	0.0881958
7.598	0.119324	-0.0291443	0.0901794
7.6	0.119934	-0.0273132	0.0926208
7.602	0.119019	-0.0248718	0.0941467
7.604	0.116882	-0.0221252	0.0947571
7.606	0.115051	-0.0192261	0.0958252
7.608	0.112305	-0.0154114	0.0968933
7.61	0.107422	-0.0105286	0.0968933
7.612	0.102539	-0.00518799	0.0973511
7.614	0.0979614	0.000457764	0.0984192
7.616	0.0912476	0.00686646	0.098114
7.618	0.0842285	0.0134277	0.0976563
7.62	0.0775146	0.0198364	0.0973511
7.622	0.0686646	0.0267029	0.0953674
7.624	0.0585938	0.0337219	0.0923157
7.626	0.0488281	0.0398254	0.0886536
7.628	0.038147	0.0453186	0.0834656
7.63	0.0259399	0.0506592	0.0765991
7.632	0.0146484	0.0544739	0.0691223
7.634	0.00427246	0.0567627	0.0610352
7.636	-0.00610352	0.0578308	0.0517273
7.638	-0.0152588	0.057373	0.0421143
7.64	-0.0228882	0.0559998	0.0331116
7.642	-0.0308228	0.0543213	0.0234985
7.644	-0.0387573	0.0526428	0.0138855
7.646	-0.0448608	0.050354	0.00549316
7.648	-0.0500488	0.0476074	-0.00244141
7.65	-0.055542	0.0450134	-0.0105286
7.652	-0.0595093	0.042572	-0.0169373
7.654	-0.062561	0.0402832	-0.0222778
7.656	-0.0662231	0.0384521	-0.027771
7.658	-0.0692749	0.0369263	-0.0323486
7.66	-0.0704956	0.0350952	-0.0354004
7.662	-0.0720215	0.0332642	-0.0387573
7.664	-0.0735474	0.0315857	-0.0419617
7.666	-0.0732422	0.0291443	-0.0440979
7.668	-0.0726318	0.0267029	-0.045929
7.67	-0.0726318	0.0244141	-0.0482178
7.672	-0.071106	0.0219727	-0.0491333
7.674	-0.0695801	0.019989	-0.0495911
7.676	-0.0689697	0.0187683	-0.0502014
7.678	-0.0686646	0.0180054	-0.0506592
7.68	-0.0671387	0.0169373	-0.0502014
7.682	-0.0668335	0.0166321	-0.0502014
7.684	-0.0671387	0.0167847	-0.050354
7.686	-0.0665283	0.0169373	-0.0495911
7.688	-0.0653076	0.0167847	-0.0485229
7.69	-0.0646973	0.0164795	-0.0482178
7.692	-0.0622559	0.0152588	-0.0469971
7.694	-0.0592041	0.0134277	-0.0457764
7.696	-0.0570679	0.0120544	-0.0450134
7.698	-0.0549316	0.0108337	-0.0440979
7.7	-0.0518799	0.00976563	-0.0421143
7.702	-0.0500488	0.00915527	-0.0408936
7.704	-0.0488281	0.00900269	-0.0398254
7.706	-0.0469971	0.00869751	-0.0382996
7.708	-0.0454712	0.0088501	-0.0366211
7.71	-0.0454712	0.00961304	-0.0358582
7.712	-0.0448608	0.0102234	-0.0346375
7.714	-0.0436401	0.0102234	-0.0334167
7.716	-0.0436401	0.010376	-0.0332642
7.718	-0.0430298	0.00991821	-0.0331116
7.72	-0.0411987	0.00930786	-0.0318909
7.722	-0.0408936	0.00915527	-0.0317383
7.724	-0.0408936	0.00930786	-0.0315857
7.726	-0.0393677	0.0088501	-0.0305176
7.728	-0.0378418	0.00839233	-0.0294495
7.73	-0.0378418	0.00869751	-0.0291443
7.732	-0.0369263	0.00900269	-0.0279236
7.734	-0.0357056	0.00930786	-0.0263977
7.736	-0.0354004	0.0100708	-0.0253296
7.738	-0.0350952	0.0105286	-0.0245667
7.74	-0.0332642	0.0105286	-0.0227356
7.742	-0.032959	0.0106812	-0.0222778
7.744	-0.0332642	0.0106812	-0.022583
7.746	-0.0323486	0.010376	-0.0219727
7.748	-0.0311279	0.0100708	-0.0210571
7.75	-0.0308228	0.00991821	-0.0209045
7.752	-0.0296021	0.00946045	-0.0201416
7.754	-0.027771	0.00915527	-0.0186157
7.756	-0.0271606	0.00961304	-0.0175476
7.758	-0.0265503	0.0102234	-0.0163269
7.76	-0.0250244	0.0108337	-0.0141907
7.762	-0.0244141	0.0114441	-0.01297
7.764	-0.0241089	0.0119019	-0.012207
7.766	-0.022583	0.0117493	-0.0108337
7.768	-0.0213623	0.0112915	-0.0100708
7.77	-0.0216675	0.0109863	-0.0106812
7.772	-0.0210571	0.010376	-0.0106812
7.774	-0.0198364	0.00946045	-0.010376
7.776	-0.0198364	0.0088501	-0.0109863
7.778	-0.0195313	0.00793457	-0.0115967
7.78	-0.0177002	0.00701904	-0.0106812
7.782	-0.017395	0.00656128	-0.0108337
7.784	-0.0177002	0.00671387	-0.0109863
7.786	-0.0170898	0.00640869	-0.0106812
7.788	-0.0164795	0.00640869	-0.0100708
7.79	-0.0167847	0.00671387	-0.0100708
7.792	-0.0164795	0.00671387	-0.00976563
7.794	-0.0158691	0.00671387	-0.00915527
7.796	-0.0164795	0.00732422	-0.00915527
7.798	-0.0170898	0.00747681	-0.00961304
7.8	-0.0164795	0.00732422	-0.00915527
7.802	-0.0167847	0.00747681	-0.00930786
7.804	-0.0170898	0.00793457	-0.00915527
7.806	-0.0161743	0.00762939	-0.00854492
7.808	-0.0149536	0.00717163	-0.00778198
7.81	-0.0143433	0.00656128	-0.00778198
7.812	-0.0134277	0.00595093	-0.00747681
7.814	-0.0125122	0.00564575	-0.00686646
7.816	-0.0131226	0.00610352	-0.00701904
7.818	-0.0137329	0.00671387	-0.00701904
7.82	-0.0134277	0.00701904	-0.00640869
7.822	-0.0143433	0.00747681	-0.00686646
7.824	-0.015564	0.00839233	-0.00717163
7.826	-0.0149536	0.00839233	-0.00656128
7.828	-0.0137329	0.00808716	-0.00564575
7.83	-0.0137329	0.00823975	-0.00549316
7.832	-0.0128174	0.00808716	-0.00473022
7.834	-0.0106812	0.00747681	-0.00320435
7.836	-0.00946045	0.00701904	-0.00244141
7.838	-0.00732422	0.00640869	-0.000915527
7.84	-0.00366211	0.00518799	0.00152588
7.842	-0.0012207	0.00411987	0.00289917
7.844	-0.000610352	0.00335693	0.00274658
7.846	-0.000610352	0.00244141	0.00183105
7.848	-0.00274658	0.00213623	-0.000610352
7.85	-0.00732422	0.00228882	-0.0050354
7.852	-0.0112915	0.00213623	-0.00915527
7.854	-0.0143433	0.00152588	-0.0128174
7.856	-0.0180054	0.00152588	-0.0164795
7.858	-0.020752	0.00152588	-0.0192261
7.86	-0.0216675	0.00137329	-0.0202942
7.862	-0.0219727	0.00137329	-0.0205994
7.864	-0.0219727	0.0012207	-0.020752
7.866	-0.0198364	0.000762939	-0.0190735
7.868	-0.0177002	0.000305176	-0.017395
7.87	-0.0167847	0.000305176	-0.0164795
7.872	-0.0152588	0.000152588	-0.0151062
7.874	-0.0128174	-0.000457764	-0.0132751
7.876	-0.0115967	-0.00106812	-0.0126648
7.878	-0.0106812	-0.00183105	-0.0125122
7.88	-0.00976563	-0.00274658	-0.0125122
7.882	-0.0109863	-0.00289917	-0.0138855
7.884	-0.0134277	-0.00274658	-0.0161743
7.886	-0.0143433	-0.00274658	-0.0170898
7.888	-0.0146484	-0.00289917	-0.0175476
7.89	-0.0152588	-0.00274658	-0.0180054
7.892	-0.0143433	-0.00274658	-0.0170898
7.894	-0.012207	-0.00320435	-0.0154114
7.896	-0.0115967	-0.00335693	-0.0149536
7.898	-0.0115967	-0.00350952	-0.0151062
7.9	-0.0109863	-0.0038147	-0.014801
7.902	-0.0119019	-0.00335693	-0.0152588
7.904	-0.0131226	-0.00244141	-0.015564
7.906	-0.0128174	-0.00198364	-0.014801
7.908	-0.012207	-0.00183105	-0.0140381
7.91	-0.0125122	-0.00152588	-0.0140381
7.912	-0.0119019	-0.00152588	-0.0134277
7.914	-0.0106812	-0.00167847	-0.0123596
7.916	-0.0109863	-0.00137329	-0.0123596
7.918	-0.0112915	-0.00106812	-0.0123596
7.92	-0.0100708	-0.00152588	-0.0115967
7.922	-0.00976563	-0.00198364	-0.0117493
7.924	-0.010376	-0.00213623	-0.0125122
7.926	-0.00946045	-0.00259399	-0.0120544
7.928	-0.00946045	-0.00274658	-0.012207
7.93	-0.0106812	-0.00244141	-0.0131226
7.932	-0.0109863	-0.00213623	-0.0131226
7.934	-0.0109863	-0.00228882	-0.0132751
7.936	-0.0119019	-0.00213623	-0.0140381
7.938	-0.0128174	-0.00183105	-0.0146484
7.94	-0.012207	-0.00183105	-0.0140381
7.942	-0.012207	-0.00183105	-0.0140381
7.944	-0.0128174	-0.00183105	-0.0146484
7.946	-0.012207	-0.00228882	-0.0144958
7.948	-0.0119019	-0.00228882	-0.0141907
7.95	-0.0128174	-0.00183105	-0.0146484
7.952	-0.0125122	-0.00167847	-0.0141907
7.954	-0.0106812	-0.00198364	-0.0126648
7.956	-0.0100708	-0.00198364	-0.0120544
7.958	-0.00946045	-0.00198364	-0.0114441
7.96	-0.00793457	-0.00213623	-0.0100708
7.962	-0.00793457	-0.00183105	-0.00976563
7.964	-0.0088501	-0.00137329	-0.0102234
7.966	-0.00854492	-0.00137329	-0.00991821
7.968	-0.00823975	-0.00152588	-0.00976563
7.97	-0.00915527	-0.0012207	-0.010376
7.972	-0.00946045	-0.00106812	-0.0105286
7.974	-0.0088501	-0.000915527	-0.00976563
7.976	-0.00976563	-0.000305176	-0.0100708
7.978	-0.0100708	0.000152588	-0.00991821
7.98	-0.00946045	0.000457764	-0.00900269
7.982	-0.00976563	0.000915527	-0.0088501
7.984	-0.0106812	0.00152588	-0.00915527
7.986	-0.0100708	0.00183105	-0.00823975
7.988	-0.00946045	0.00213623	-0.00732422
7.99	-0.010376	0.00259399	-0.00778198
7.992	-0.010376	0.00259399	-0.00778198
7.994	-0.0100708	0.00183105	-0.00823975
7.996	-0.010376	0.00137329	-0.00900269
7.998	-0.0106812	0.000762939	-0.00991821
8	-0.00976563	0.000305176	-0.00946045
8.002	-0.00976563	0.000305176	-0.00946045
8.004	-0.010376	0.000152588	-0.0102234
8.006	-0.00976563	-0.000610352	-0.010376
8.008	-0.00915527	-0.00152588	-0.0106812
8.01	-0.00976563	-0.00167847	-0.0114441
8.012	-0.00976563	-0.00152588	-0.0112915
8.014	-0.00915527	-0.0012207	-0.010376
8.016	-0.0100708	-0.000457764	-0.0105286
8.018	-0.0106812	0	-0.0106812
8.02	-0.00976563	-0.000152588	-0.00991821
8.022	-0.00976563	-0.000457764	-0.0102234
8.024	-0.00976563	-0.000610352	-0.010376
8.026	-0.00854492	-0.0012207	-0.00976563
8.028	-0.00732422	-0.00167847	-0.00900269
8.03	-0.00793457	-0.00167847	-0.00961304
8.032	-0.00793457	-0.00167847	-0.00961304
